"Time","Perspiration","Speed","Acceleration","Braking","Steering","Phase","Activity","Failure","Distance"
0,0.00520988671428571,0,1.54536493685714,0,-100.514086822857,0,0,0,-10.75954926
1,0.00488406371428571,0,1.58060791557143,0,-101.969892557143,0,0,0,-10.7593343314286
2,0.004714644125,0,1.596454052625,0.032678612375,-101.934517775,0,0,0,-10.7589850725
3,0.00464150257142857,0,1.59388497757143,29.2202089032857,-101.935790471429,0,0,0,-10.7591194028571
4,0.004612348625,0,1.537540494,53.1209255225,-101.934517775,0,0,0,-10.7589850725
5,0.00466052485714286,0,1.50977620771429,54.3703223928571,-101.935790471429,0,0,0,-10.7591194028571
6,0.004757950375,0,1.52730707375,54.4158199125,-101.934517775,0,0,0,-10.7589850725
7,0.00487237814285714,0,1.53527632385714,50.78482068,-101.925833271429,0,0,0,-10.7591222928571
8,0.004943536875,0.0123615055,1.577561282,27.94499043,-106.4117644875,0,0,0,-10.75896999
9,0.00492545385714286,0.506705591428571,6.14958146871429,0.350488530571429,-188.246058271429,0,0,0,-10.6725028442857
10,0.00490219625,1.5493050535,16.21880351875,0,-287.6984482125,0,0,0,-10.239527427125
11,0.00482712514285714,3.56183948457143,18.8381012657143,0,-202.484351742857,0,0,0,-9.13173861085714
12,0.004632335875,6.064114928375,20.17549298875,0,-14.7989154915,0,0,0,-6.9799996015
13,0.00442115271428571,8.42764909514286,23.2994997271429,0,94.8737601814286,0,0,0,-3.74088835371429
14,0.004210364125,10.931662768625,26.1495196975,0,63.45079477,0,0,0,0.64315080725
15,0.00398053328571429,14.0266168871429,28.3414635185714,0,12.022497941,0,0,0,6.24947173785714
16,0.003790596,17.01111450875,26.155896905,0,-5.6489252075,0,0,0,13.299053511375
17,0.00363372157142857,19.15348257,26.0545660657143,0,-5.62424957,0,0,0,21.46559385
18,0.003535573125,21.32726722875,28.55403282375,0,-6.427062645625,0,0,0,30.58510965
19,0.00349460957142857,23.6819858014286,27.0391483157143,0,-1.42495182157143,0,0,0,40.7500498685714
20,0.003484746375,25.51357723,22.9870229425,0,0.601866604875,0,0,0,51.893541115
21,0.00347538814285714,26.3153095328571,23.0394793485714,0,1.49872367785714,0,0,0,63.6416968271429
22,0.003481347,27.3018085675,28.24770199375,0,1.4990370255,0,0,0,75.70930578375
23,0.00347719442857143,28.7325907714286,21.3107423114286,0,1.49905574157143,0,0,0,88.3798600128571
24,0.003426893375,29.1666749875,16.25385755625,0,1.4990370255,0,0,0,101.49756597875
25,0.00341212228571429,29.17550444,16.6215834257143,0,1.49905574157143,0.571428571428571,0.571428571428571,0,114.678974985714
26,0.003457133,29.35872872375,16.36532816,0,1.4990370255,1,1,0,127.898142825
27,0.003482596,29.5526427971429,16.6114661771429,0,1.49905574157143,1,1,0,141.203471685714
28,0.003481098,29.74362874875,16.8677452025,0,1.4990370255,1,1,0,154.6017163125
29,0.00346787114285714,29.8934814814286,13.81216786,0,1.49905574157143,1,1,0,168.079856171429
30,0.003455545625,29.89217938,14.7397362575,0,1.4990370255,1,1,0,181.588186375
31,0.00345294471428571,29.8320328457143,10.2796868518571,0,1.49905574157143,1,1,0,195.196932342857
32,0.00341375325,29.45547640125,11.83026662625,0,1.4990370255,1,1,0,208.615748075
33,0.00333538471428571,29.26725366,11.6359550414286,0,1.49905574157143,1,1,0,221.879650942857
34,0.003261845,29.07614659125,12.403006445,0,1.4990370255,1,1,0,235.05830235
35,0.00320304071428571,28.9669230828571,12.0010436242857,0,1.49905574157143,1,1,0,248.170296271429
36,0.003198553875,28.8467368025,11.56426675,0,1.4990370255,1,1,0,261.229783425
37,0.003242449,28.7148721471429,15.4351458885714,0,1.49905574157143,1,1,0,274.234880442857
38,0.003300896125,28.793013775,18.90980992375,0,1.4990370255,1,1,0,287.208455925
39,0.00336008485714286,29.1562790657143,16.6745695642857,0,1.49905574157143,1,1,0,300.304132242857
40,0.00338782475,29.41545122375,16.3060336875,0,1.4990370255,1,1,0,313.5399613875
41,0.003373379,29.5998552671429,16.2530573157143,0,1.49905574157143,1,1,0,326.873246942857
42,0.003367669875,29.779917135,16.5486219575,0,1.4990370255,1,1,0,340.2854626
43,0.00338424142857143,29.8567845928571,14.3985921771429,0,1.49905574157143,1,1,0,353.769701142857
44,0.003407677875,29.78643937875,15.4628285175,0,1.4990370255,1,1,0,367.2420553125
45,0.00341785142857143,29.7081227771429,15.8541435142857,0,1.49905574157143,1,1,0,380.683043285714
46,0.003405494625,29.6975503575,15.49518174,0,1.4990370255,1,1,0,394.09888225
47,0.00338320357142857,29.7036726828571,14.9755753828571,0,1.49905574157143,1,1,0,407.5204423
48,0.003359701,29.6647975725,11.6086504715,0,1.498937762125,1,1,0,420.930408575
49,0.00336668971428571,29.3444713857143,8.07024348028571,0,3.10632234914286,1,1,0,434.287339314286
50,0.0033877555,28.560890575,9.431319820125,0,4.49805814625,1,1,0,447.367455875
51,0.00341773171428571,27.8397820471429,10.7611882211429,0,3.45204033,1,1,0,460.097404328571
52,0.00342777775,27.6196955,15.16882757125,0,2.9971109255,1,1,0,472.609003475
53,0.00340920914285714,27.60808974,14.8746625942857,0,2.99811148314286,1,1,0,485.080293728571
54,0.003396575875,27.64306436125,16.01806497625,0,2.998074051,1,1,0,497.558299925
55,0.00339086614285714,27.7028202442857,15.8886265228571,0,2.99811148314286,1,1,0,510.060385571429
56,0.003363009875,27.87267287,14.7926300275,0,2.997915161875,1,1,0,522.6059991875
57,0.00330910328571429,28.0710739871429,14.64350166,0,3.00049761842857,1,1,0,535.246679857143
58,0.003265140125,28.27834040375,15.181107495,0,4.14351859325,1,1,0,547.97238655
59,0.003234148,28.4548166185714,14.9839006857143,0,4.49533193985714,1,1,0,560.791324014286
60,0.003197788625,28.473115555,13.36522164,0,3.193328280375,1,1,0,573.6520422625
61,0.00314445085714286,28.4346029985714,12.7991653642857,0,1.48768167585714,1,1,0,586.508675242857
62,0.003140383625,28.3747307025,12.27256078875,0,2.51084149175,1,1,0,599.3331785
63,0.003164705,28.3134533528571,12.2915322042857,0,2.99731548285714,1,1,0,612.1428881
64,0.00314217175,28.22150799375,12.38931674375,0,2.998074051,1,1,0,624.9039300375
65,0.00309862757142857,28.1056682228571,12.30624811,0,2.99811148314286,1,1,0,637.634836985714
66,0.003090229125,27.97798632125,12.20713716125,0,2.998074051,1,1,0,650.292964975
67,0.00311407385714286,27.8551829114286,11.2592987772857,0,2.99811148314286,1,1,0,662.912188057143
68,0.003141915,27.60476880375,10.397290478,0,2.998074051,1,1,0,675.438204325
69,0.00315637542857143,27.3005379942857,11.1187364271429,0,2.99811148314286,1,1,0,687.844394085714
70,0.003187974625,27.16523194375,17.1166431725,0,2.998074051,1,1,0,700.1305313125
71,0.00320883314285714,27.3162908542857,17.87547983,0,2.99811148314286,1,1,0,712.429394314286
72,0.00317389125,27.70560767625,17.76252016875,0,2.998074051,1,1,0,724.8423477
73,0.00312561914285714,28.1380352814286,17.2824648528571,0,3.00048523957143,1,1,0,737.463325057143
74,0.00313411275,28.3968496175,15.3238096,0,1.121225579875,1,1,0,750.23456215
75,0.00315832242857143,28.5429288614286,15.2522904271429,0,0.885540910714286,1,1,0,763.102742042857
76,0.00315297,28.59789749125,13.71824277,0,2.645285804,1,1,0,776.0061970625
77,0.00309409657142857,28.5506522042857,13.3439904757143,0,2.99861298485714,1,1,0,788.918914371429
78,0.0030230685,28.5198000675,13.49729716,0,2.998074051,1,1,0,801.8060939125
79,0.00300914357142857,28.4595811842857,13.3591880357143,0,2.99811148314286,1,1,0,814.6862124
80,0.0030378255,28.422403085,12.81725412,0,2.998074051,1,1,0,827.52715605
81,0.003090151,28.3488158014286,12.3440113471429,0,2.99811148314286,1,1,0,840.366712271429
82,0.00314200125,28.26639588875,12.15439728625,0,2.998074051,1,1,0,853.1485858
83,0.00315761071428571,28.1800144842857,11.7690544071429,0,2.99811148314286,1,1,0,865.9088117
84,0.00314891775,28.06406148,11.95554816375,0,2.998074051,1,1,0,878.6053386625
85,0.00315740457142857,27.9643585271429,11.7753509314286,0,2.99811148314286,1,1,0,891.275467028571
86,0.003201217125,27.82678933875,11.55392347375,0,2.998074051,1,1,0,903.86807455
87,0.00326947628571429,27.7094895085714,11.3397073757143,0,2.99811148314286,1,1,0,916.426826742857
88,0.003318013625,27.5911403175,11.3008675475,0,2.998074051,1,1,0,928.9105767875
89,0.00334622742857143,27.4270272342857,11.3413701814286,0,2.99811148314286,1,1,0,941.348195228571
90,0.003343339875,27.23615985625,11.15262233,0,2.998074051,1,1,0,953.682967875
91,0.00329918414285714,27.0569570571429,11.0881260828571,0,2.99811148314286,1,1,0,965.958118985714
92,0.003279542625,26.85459086375,11.0846937375,0,2.998074051,1,1,0,978.126614175
93,0.00335732385714286,26.6786140571429,13.2938932885714,0,2.99811148314286,1,1,0,990.230031685714
94,0.003561343875,26.56265633625,16.68197726625,0,2.998074051,1,1,0,1002.234954225
95,0.00383889585714286,26.6556761785714,16.2668328057143,0,2.99811148314286,1,1,0,1014.26701585714
96,0.003982689,26.7594447675,15.58585175,0,2.998074051,1,1,0,1026.3245795
97,0.00398276385714286,26.8658216885714,15.8266941014286,0,2.99811148314286,1,1,0,1038.45059457143
98,0.003947216375,27.15348346875,22.851777255,0,2.998074051,1,1,0,1050.618018
99,0.00385566628571429,28.1328031885714,21.9491072257143,0,2.99811148314286,1,1,0,1063.108186
100,0.00371095625,29.09602706875,22.27565408125,0,2.998074051,1,1,0,1076.02904225
101,0.00358576071428571,29.94820601,21.1523275742857,0,2.99811148314286,1,1,0,1089.38574714286
102,0.003484767,30.528648825,17.25025083625,0,2.999997470375,1,1,0,1103.059968875
103,0.00339798728571429,30.6444599557143,15.6820626214286,0,1.95298458814286,1,1,0,1116.904002
104,0.00332477175,30.59446215875,15.44322031,0,1.4980739,1,1,0,1130.730923125
105,0.003298001,30.4911819557143,14.8698765414286,0,1.49905574157143,1,1,0,1144.55025414286
106,0.0032826565,30.34107703,15.11966130125,0,1.4990370255,1,1,0,1158.277533875
107,0.00326835457142857,30.3012973014286,15.0783030314286,0,1.49905574157143,1,1,0,1171.99308014286
108,0.003283402875,30.36744736375,15.5317215875,0,1.4990370255,1,1,0,1185.68656075
109,0.00333256971428571,30.4962894171429,15.8375691942857,0,1.49905574157143,1,1,0,1199.44688971429
110,0.003356963875,30.670811925,15.60391297375,0,1.4990370255,1,1,0,1213.251385
111,0.00338478328571429,30.7925768242857,14.6913265442857,0,1.49905574157143,1,1,0,1227.15184
112,0.003438752375,30.72367241625,4.56695862175,0,1.4990370255,0.25,0.25,0,1241.04997175
113,0.00350948357142857,30.3194578171429,2.088586411,0,1.49905574157143,0,0,0,1254.86409828571
114,0.003554280375,29.83966394125,1.73904375175,2.941803904,1.4990370255,0,0,0,1268.443989875
115,0.00353961142857143,28.8900575942857,1.45031385885714,14.9841345128571,1.49905574157143,0,0,0,1281.75511757143
116,0.00352654025,27.96982640125,1.362268410375,3.34606273425,1.50206043825,0,0,0,1294.5546585
117,0.003527059,27.1384787914286,1.37609999,13.9408325541429,0.560143381285714,0,0,0,1307.04524328571
118,0.003536225125,25.455561525,1.54163000725,18.508598415,-6.667548630375,0,0,0,1318.91801725
119,0.003580844,23.5518396385714,1.59245750857143,20.0181506985714,-14.2291692404286,0,0,0,1329.99731857143
120,0.0036701085,21.547161565,1.5731952455,18.449285745,-20.94329271125,0,0,0,1340.0939535
121,0.00379679785714286,19.5477311514286,1.70250934614286,23.10682562,-18.4429793342857,0,0,0,1349.31845242857
122,0.003913267125,16.52785114875,2.097444313125,28.39529713875,14.05525115875,0,0,0,1357.309818875
123,0.00402600657142857,12.0600036814286,1.81111857485714,31.7239077828571,120.900770134286,0,0,0,1363.72555885714
124,0.0040889245,8.817383322,2.04172399875,11.901887745125,276.667934,0,0,0,1368.295356
125,0.00406289071428571,8.29145515728571,6.74959347871429,0.0133332672857143,390.3276845,0,0,0,1371.89286185714
126,0.00397395225,7.908530048125,11.21983282525,0,476.8935535875,0,0,0,1374.2646895
127,0.00391466971428571,7.59789237342857,15.5263863828571,0,497.608582442857,0,0,0,1374.85271442857
128,0.0039095455,8.01756828125,15.65163083375,0,469.8521940375,0,0,0,1373.418621625
129,0.00385657028571429,8.91702694242857,18.7978987742857,0,398.561251114286,0,0,0,1370.351555
130,0.003713545375,11.03929133175,25.05080450875,0,175.0141714225,0,0,0,1366.01725075
131,0.003560612,13.8757309228571,28.6256544585714,0,16.7150660014286,0,0,0,1360.66585771429
132,0.003463482375,17.05053348875,29.45966612875,0,-13.38468019175,0,0,0,1353.913356875
133,0.00342669485714286,20.1810643814286,29.25287454,0,-31.8910532485714,0,0,0,1345.70264714286
134,0.003435845875,23.0569985925,28.147595335,0,-24.40161319375,0,0,0,1335.947275125
135,0.00348231914285714,25.3493047385714,27.2550576742857,0,-8.184904273,0,0,0,1325.01933785714
136,0.003511697125,27.290021935,27.09325327375,0,-0.22328651925,0,0,0,1313.081776875
137,0.00349630014285714,28.9976853757143,21.5631814528571,0,3.00059913385714,0,0,0,1300.356526
138,0.003474907375,29.66996880125,21.329894935,0,2.555374904875,0,0,0,1287.046743125
139,0.00347092385714286,30.4106904071429,22.7124199985714,0,2.44852615428571,0,0,0,1273.49618314286
140,0.003472394625,31.31562363,23.004882235,0,11.30950270475,0,0,0,1259.533808375
141,0.00345112314285714,32.54576263,22.5928826,0,2.832678788,0.285714285714286,0.142857142857143,0,1245.12310071429
142,0.003461141375,33.76066326,21.29344870375,0,4.49208344225,2,1,0,1230.107443375
143,0.00349533314285714,34.5057470971429,20.0491907757143,0,4.497167225,2,1,0,1214.67334414286
144,0.00348032075,35.02694516125,19.78739009,0,4.497111076875,2,1,0,1198.948588125
145,0.00348187,35.5206528014286,17.2246616328571,0,4.49606651042857,2,1,0,1183.02587714286
146,0.003537746,35.82851380125,17.01102159375,0,5.2188903465,2,1,0,1166.883921
147,0.0035759,36.0934026842857,16.3475659157143,0,4.79699706542857,2,1,0,1150.65058071429
148,0.003576999875,36.31704038,16.04127598125,0,4.497709330875,2,1,0,1134.27056325
149,0.003561824,36.42568071,7.84532951685714,0,4.497167225,2,1,0,1117.84093371429
150,0.003492439875,36.053732755,2.2691055775,0.00495701125,4.497111076875,2,1,0,1101.431229
151,0.00339759314285714,35.4051773371429,1.42172922814286,7.033035894,4.497167225,2,1,0,1085.29224128571
152,0.003353229875,34.6272106375,1.391919991625,1.054330827125,4.497111076875,2,1,0,1069.472817125
153,0.00338384171428571,33.92009362,1.40717475657143,0,4.497167225,2,1,0,1053.99127928571
154,0.003433029,32.97130422125,1.415493344375,0,4.497111076875,2,1,0,1038.873473
155,0.00343056714285714,32.09733796,1.40728627257143,0,4.497167225,2,1,0,1024.19021057143
156,0.003419769125,31.20259021125,1.4392841075,0,4.497111076875,2,1,0,1009.88016675
157,0.003438638,30.3221437714286,2.46964577228571,0,4.497167225,2,1,0,995.992593242857
158,0.00344807875,29.43787851,1.469622791625,0,4.497111076875,2,1,0,982.484549575
159,0.003484399,28.56180627,3.38720043842857,0,4.497167225,2,1,0,969.388214542857
160,0.00354580075,28.0015403925,17.1444322425,0,4.49343558875,2,1,0,956.6389328
161,0.00356339442857143,28.3148964128571,18.1555457371429,0,2.57535974157143,2,1,0,943.9571609
162,0.003540478875,28.99786549375,18.429094855,0,4.495941633375,2,1,0,931.0005400125
163,0.00353285171428571,29.5900659714286,13.5748644628571,0,4.49936865485714,2,1,0,917.770789385714
164,0.00358308725,29.7320842075,10.76853438125,0,3.184245794375,2,1,0,904.33620395
165,0.00364306514285714,29.5690368742857,6.36656186585714,0,2.22386844714286,2,1,0,890.940610042857
166,0.00368690775,28.9133950075,5.362116815875,0,3.43634048875,2,1,0,877.7098056875
167,0.00369807042857143,28.1606938428571,10.8145660115714,0,4.50195386228571,2,1,0,864.834728914286
168,0.003670291375,27.99477528,12.207739195,0,4.49695218775,2,1,0,852.1573456875
169,0.00366404657142857,27.9947869242857,11.8634091,0,4.49955336042857,2,1,0,839.5180498
170,0.003731042875,27.986201495,11.75065889875,0,5.64228239875,2,1,0,826.8585202875
171,0.003823242,27.9503513957143,11.6123039657143,0,5.75378363614286,2,1,0,814.2339704
172,0.003867528125,27.90153039625,12.596433045,0,4.49904005625,2,1,0,801.605183575
173,0.00390780714285714,27.8530591085714,11.9355711728571,0,4.497167225,2,1,0,789.022907242857
174,0.00390372425,27.8036752525,11.30919253,0,4.497111076875,2,1,0,776.438030425
175,0.00389771471428571,27.7183663628571,11.3249580342857,0,4.497167225,2,1,0,763.908551857143
176,0.003941427625,27.66860688375,13.04796383375,0,4.499034495875,2,1,0,751.3897763625
177,0.00398232142857143,27.6668840028571,12.5210497971429,0,3.61165390071429,2,1,0,738.901640142857
178,0.004002934125,27.671910885,12.04299536875,0,3.586016183125,2,1,0,726.3941378625
179,0.004008322,27.6534119242857,11.42678025,0,3.93680525228571,2,1,0,713.908755385714
180,0.0040083815,27.58656355125,11.388932865,0,2.995881694875,2,1,0,701.4234924125
181,0.00400955942857143,27.5286377971429,13.3868135,0,3.722066196,2,1,0,688.986870057143
182,0.004004294625,27.50464177,12.96142676375,0,3.767196604875,2,1,0,676.5423772875
183,0.00403470185714286,27.46021514,13.9270433928571,0,3.00352124814286,2,1,0,664.139902
184,0.004086268875,27.47228354125,13.75973365125,0,5.429270357,2,1,0,651.7262211625
185,0.004139732,27.53501753,13.4583276828571,0,5.99611014171429,2,1,0,639.311339185714
186,0.00413895525,27.623399575,15.31797842,0,4.404777579125,2,1,0,626.8444298625
187,0.00413471471428571,27.7500785842857,15.9158767571429,0,3.056851812,2,1,0,614.352110185714
188,0.00416442,27.92655616375,14.74970913625,0,5.377526652375,2,1,0,601.7697792625
189,0.00418917371428571,28.1004736914286,14.8715465228571,0,3.11143268842857,2,1,0,589.124905228571
190,0.004244395125,28.2762564525,14.88895543375,0,2.997190085875,2,1,0,576.384383625
191,0.00430119057142857,28.4672201414286,14.4665335414286,0,2.99811148314286,2,1,0,563.576873328571
192,0.004311778875,28.6362170875,14.4031465625,0,2.996201012625,2,1,0,550.6663211875
193,0.00428494671428571,28.8184858842857,14.40711042,0,3.55879685928571,2,1,0,537.700553914286
194,0.004258745,28.99989839,14.3879588375,0,4.19037637225,2,1,0,524.6333919375
195,0.004256438,29.1782130928571,14.4875046142857,0,3.00683438428571,2,1,0,511.501918257143
196,0.004308175375,29.3611847925,14.7979937975,0,3.860696998875,2,1,0,498.2704322375
197,0.00437447728571429,29.4509573114286,9.08801850414286,0,4.49922105942857,2,1,0,484.982484528571
198,0.0044287465,28.93161958875,7.2533183635,0,4.497111076875,2,1,0,471.7650272
199,0.00444676771428571,28.1056803385714,12.7480800344286,0,4.49750501914286,2,1,0,458.891786014286
200,0.00441450125,27.9456065625,16.03871824,0,4.503960075,2,1,0,446.2474066375
201,0.00437541714285714,28.0417317828571,14.9608987114286,0,2.32327223457143,2,1,0,433.614271828571
202,0.00434920125,28.2317435975,14.64556350125,0,2.995902540875,2,1,0,420.8972132125
203,0.00430996014285714,28.3614724114286,13.60731147,0,2.99879520214286,2,1,0,408.116749285714
204,0.004254545375,28.310659185,11.8834146975,0,3.438279963875,2,1,0,395.302984675
205,0.00421862142857143,28.1988937514286,13.16652781,0,4.50195386228571,2,1,0,382.544431614286
206,0.0042125115,28.13441360625,15.50709013375,0,4.497111076875,2,1,0,369.8176204625
207,0.00423251485714286,28.2825660042857,15.6999342485714,0,4.497167225,2,1,0,357.0858821
208,0.00425159375,28.534522505,15.31165961125,0,4.495073327125,2,1,0,344.2469437125
209,0.00424517014285714,28.7761183371429,14.6468622028571,0,5.13863900271429,2,1,0,331.313748328571
210,0.0042385125,29.01959626875,14.920905915,0,4.500003181625,2,1,0,318.2530722375
211,0.004260317,29.2447405457143,14.7948960671429,0,4.497167225,2,1,0,305.102451814286
212,0.004272257875,29.428134325,14.578106055,0,4.497111076875,2,1,0,291.8425653125
213,0.00425035314285714,29.5484786957143,9.281146593,0,4.497167225,2,1,0,278.516119071429
214,0.00423813875,29.096987645,6.9793237955,0,4.495396927625,2,1,0,265.2414951
215,0.00428562157142857,28.2858357114286,8.33713385585714,0,5.05450556814286,2,1,0,252.275822014286
216,0.004342162625,27.7009037475,12.676463922875,0,4.854878961375,2,1,0,239.64917085
217,0.00436676985714286,27.7329067042857,18.8673308842857,0,4.49666572371429,2,1,0,227.162390457143
218,0.004357154625,28.3744855475,16.88864046375,0,4.497111076875,2,1,0,214.4855652375
219,0.00432559114285714,28.80197585,14.6904830471429,0,4.497167225,2,1,0,201.5594917
220,0.00433942775,29.05228481375,14.3588503225,0,4.497111076875,2,1,0,188.4841966
