"Time","Perspiration","Speed","Acceleration","Braking","Steering","Phase","Activity","Failure","Distance"
0,0.00447065240972914,0,1.54536493685714,0,-100.514086822857,0,0,0,-10.75954926
1,0.00451583403330617,0,1.58060791557143,0,-101.969892557143,0,0,0,-10.7593343314286
2,0.00456272208654026,0,1.596454052625,0.032678612375,-101.934517775,0,0,0,-10.7589850725
3,0.00459816329654186,0,1.59388497757143,29.2202089032857,-101.935790471429,0,0,0,-10.7591194028571
4,0.00460503202617809,0,1.537540494,53.1209255225,-101.934517775,0,0,0,-10.7589850725
5,0.00463747556685562,0,1.50977620771429,54.3703223928571,-101.935790471429,0,0,0,-10.7591194028571
6,0.00468319323392592,0,1.52730707375,54.4158199125,-101.934517775,0,0,0,-10.7589850725
7,0.00472992443607684,0,1.53527632385714,50.78482068,-101.925833271429,0,0,0,-10.7591222928571
8,0.00477602495783139,0.0123615055,1.577561282,27.94499043,-106.4117644875,0,0,0,-10.75896999
9,0.00481976158626566,0.506705591428571,6.14958146871429,0.350488530571429,-188.246058271429,0,0,0,-10.6725028442857
10,0.00484806631197772,1.5493050535,16.21880351875,0,-287.6984482125,0,0,0,-10.239527427125
11,0.00482678891071303,3.56183948457143,18.8381012657143,0,-202.484351742857,0,0,0,-9.13173861085714
12,0.00478356798004454,6.064114928375,20.17549298875,0,-14.7989154915,0,0,0,-6.9799996015
13,0.00473715046293189,8.42764909514286,23.2994997271429,0,94.8737601814286,0,0,0,-3.74088835371429
14,0.00468948655683458,10.931662768625,26.1495196975,0,63.45079477,0,0,0,0.64315080725
15,0.00464120093381461,14.0266168871429,28.3414635185714,0,12.022497941,0,0,0,6.24947173785714
16,0.00459251586903201,17.01111450875,26.155896905,0,-5.6489252075,0,0,0,13.299053511375
17,0.00454357474994198,19.15348257,26.0545660657143,0,-5.62424957,0,0,0,21.46559385
18,0.00449444293695877,21.32726722875,28.55403282375,0,-6.427062645625,0,0,0,30.58510965
19,0.00444517622607169,23.6819858014286,27.0391483157143,0,-1.42495182157143,0,0,0,40.7500498685714
20,0.00439580223765066,25.51357723,22.9870229425,0,0.601866604875,0,0,0,51.893541115
21,0.00434634895918968,26.3153095328571,23.0394793485714,0,1.49872367785714,0,0,0,63.6416968271429
22,0.00429683104203987,27.3018085675,28.24770199375,0,1.4990370255,0,0,0,75.70930578375
23,0.00424726500808071,28.7325907714286,21.3107423114286,0,1.49905574157143,0,0,0,88.3798600128571
24,0.00419766030821435,29.1666749875,16.25385755625,0,1.4990370255,0,0,0,101.49756597875
25,0.00414802808386707,29.17550444,16.6215834257143,0,1.49905574157143,0.571428571428571,0.571428571428571,0,114.678974985714
26,0.00409837582941908,29.35872872375,16.36532816,0,1.4990370255,1,1,0,127.898142825
27,0.00404871219252536,29.5526427971429,16.6114661771429,0,1.49905574157143,1,1,0,141.203471685714
28,0.00399904460347589,29.74362874875,16.8677452025,0,1.4990370255,1,1,0,154.6017163125
29,0.00394938108365938,29.8934814814286,13.81216786,0,1.49905574157143,1,1,0,168.079856171429
30,0.00389973080292394,29.89217938,14.7397362575,0,1.4990370255,1,1,0,181.588186375
31,0.00385010312096444,29.8320328457143,10.2796868518571,0,1.49905574157143,1,1,0,195.196932342857
32,0.00380051184363076,29.45547640125,11.83026662625,0,1.4990370255,1,1,0,208.615748075
33,0.00375097121936411,29.26725366,11.6359550414286,0,1.49905574157143,1,1,0,221.879650942857
34,0.00370150650158545,29.07614659125,12.403006445,0,1.4990370255,1,1,0,235.05830235
35,0.00365214661562446,28.9669230828571,12.0010436242857,0,1.49905574157143,1,1,0,248.170296271429
36,0.00360295057616303,28.8467368025,11.56426675,0,1.4990370255,1,1,0,261.229783425
37,0.00355400294708903,28.7148721471429,15.4351458885714,0,1.49905574157143,1,1,0,274.234880442857
38,0.00350551906689178,28.793013775,18.90980992375,0,1.4990370255,1,1,0,287.208455925
39,0.00345803777374541,29.1562790657143,16.6745695642857,0,1.49905574157143,1,1,0,300.304132242857
40,0.00341592690927716,29.41545122375,16.3060336875,0,1.4990370255,1,1,0,313.5399613875
41,0.0033903520974667,29.5998552671429,16.2530573157143,0,1.49905574157143,1,1,0,326.873246942857
42,0.00338337876233837,29.779917135,16.5486219575,0,1.4990370255,1,1,0,340.2854626
43,0.00339395469532416,29.8567845928571,14.3985921771429,0,1.49905574157143,1,1,0,353.769701142857
44,0.00341020856203974,29.78643937875,15.4628285175,0,1.4990370255,1,1,0,367.2420553125
45,0.00341671998697652,29.7081227771429,15.8541435142857,0,1.49905574157143,1,1,0,380.683043285714
46,0.00340683780963771,29.6975503575,15.49518174,0,1.4990370255,1,1,0,394.09888225
47,0.00338824719398581,29.7036726828571,14.9755753828571,0,1.49905574157143,1,1,0,407.5204423
48,0.00337130165324431,29.6647975725,11.6086504715,0,1.498937762125,1,1,0,420.930408575
49,0.00337492267736136,29.3444713857143,8.07024348028571,0,3.10632234914286,1,1,0,434.287339314286
50,0.00339159067274596,28.560890575,9.431319820125,0,4.49805814625,1,1,0,447.367455875
51,0.00341332116471221,27.8397820471429,10.7611882211429,0,3.45204033,1,1,0,460.097404328571
52,0.00342022765904329,27.6196955,15.16882757125,0,2.9971109255,1,1,0,472.609003475
53,0.00340728227400564,27.60808974,14.8746625942857,0,2.99811148314286,1,1,0,485.080293728571
54,0.00339483438888629,27.64306436125,16.01806497625,0,2.998074051,1,1,0,497.558299925
55,0.00338443282458206,27.7028202442857,15.8886265228571,0,2.99811148314286,1,1,0,510.060385571429
56,0.00335806570298631,27.87267287,14.7926300275,0,2.997915161875,1,1,0,522.6059991875
57,0.00331523533853019,28.0710739871429,14.64350166,0,3.00049761842857,1,1,0,535.246679857143
58,0.00327262269324294,28.27834040375,15.181107495,0,4.14351859325,1,1,0,547.97238655
59,0.00323969263883096,28.4548166185714,14.9839006857143,0,4.49533193985714,1,1,0,560.791324014286
60,0.00320548896422628,28.473115555,13.36522164,0,3.193328280375,1,1,0,573.6520422625
61,0.00316621613549741,28.4346029985714,12.7991653642857,0,1.48768167585714,1,1,0,586.508675242857
62,0.00315501983078448,28.3747307025,12.27256078875,0,2.51084149175,1,1,0,599.3331785
63,0.00316479480708075,28.3134533528571,12.2915322042857,0,2.99731548285714,1,1,0,612.1428881
64,0.0031468712000813,28.22150799375,12.38931674375,0,2.998074051,1,1,0,624.9039300375
65,0.00311534005761628,28.1056682228571,12.30624811,0,2.99811148314286,1,1,0,637.634836985714
66,0.00310763335403599,27.97798632125,12.20713716125,0,2.998074051,1,1,0,650.292964975
67,0.00312462111349329,27.8551829114286,11.2592987772857,0,2.99811148314286,1,1,0,662.912188057143
68,0.003146654848047,27.60476880375,10.397290478,0,2.998074051,1,1,0,675.438204325
69,0.00316270932877919,27.3005379942857,11.1187364271429,0,2.99811148314286,1,1,0,687.844394085714
70,0.00318653820731037,27.16523194375,17.1166431725,0,2.998074051,1,1,0,700.1305313125
71,0.00319971071418,27.3162908542857,17.87547983,0,2.99811148314286,1,1,0,712.429394314286
72,0.00317690437028078,27.70560767625,17.76252016875,0,2.998074051,1,1,0,724.8423477
73,0.00314358625292615,28.1380352814286,17.2824648528571,0,3.00048523957143,1,1,0,737.463325057143
74,0.0031428536799733,28.3968496175,15.3238096,0,1.121225579875,1,1,0,750.23456215
75,0.00315660038159096,28.5429288614286,15.2522904271429,0,0.885540910714286,1,1,0,763.102742042857
76,0.00314938477209093,28.59789749125,13.71824277,0,2.645285804,1,1,0,776.0061970625
77,0.00311501890625052,28.5506522042857,13.3439904757143,0,2.99861298485714,1,1,0,788.918914371429
78,0.00307349102135989,28.5198000675,13.49729716,0,2.998074051,1,1,0,801.8060939125
79,0.00304339607383934,28.4595811842857,13.3591880357143,0,2.99811148314286,1,1,0,814.6862124
80,0.00305790679642947,28.422403085,12.81725412,0,2.998074051,1,1,0,827.52715605
81,0.00309646714406361,28.3488158014286,12.3440113471429,0,2.99811148314286,1,1,0,840.366712271429
82,0.0031374345463016,28.26639588875,12.15439728625,0,2.998074051,1,1,0,853.1485858
83,0.00315848979585423,28.1800144842857,11.7690544071429,0,2.99811148314286,1,1,0,865.9088117
84,0.00315932589113363,28.06406148,11.95554816375,0,2.998074051,1,1,0,878.6053386625
85,0.00317129050264056,27.9643585271429,11.7753509314286,0,2.99811148314286,1,1,0,891.275467028571
86,0.00320564134187459,27.82678933875,11.55392347375,0,2.998074051,1,1,0,903.86807455
87,0.0032503598565836,27.7094895085714,11.3397073757143,0,2.99811148314286,1,1,0,916.426826742857
88,0.00329536924059025,27.5911403175,11.3008675475,0,2.998074051,1,1,0,928.9105767875
89,0.00333244676017266,27.4270272342857,11.3413701814286,0,2.99811148314286,1,1,0,941.348195228571
90,0.00333548201261956,27.23615985625,11.15262233,0,2.998074051,1,1,0,953.682967875
91,0.00330903396633107,27.0569570571429,11.0881260828571,0,2.99811148314286,1,1,0,965.958118985714
92,0.00329849239281781,26.85459086375,11.0846937375,0,2.998074051,1,1,0,978.126614175
93,0.00333147035625614,26.6786140571429,13.2938932885714,0,2.99811148314286,1,1,0,990.230031685714
94,0.0033767995185645,26.56265633625,16.68197726625,0,2.998074051,1,1,0,1002.234954225
95,0.0034238237236406,26.6556761785714,16.2668328057143,0,2.99811148314286,1,1,0,1014.26701585714
96,0.00347126204759629,26.7594447675,15.58585175,0,2.998074051,1,1,0,1026.3245795
97,0.00351854928380247,26.8658216885714,15.8266941014286,0,2.99811148314286,1,1,0,1038.45059457143
98,0.0035650701291803,27.15348346875,22.851777255,0,2.998074051,1,1,0,1050.618018
99,0.00360946432125754,28.1328031885714,21.9491072257143,0,2.99811148314286,1,1,0,1063.108186
100,0.00364092047907256,29.09602706875,22.27565408125,0,2.998074051,1,1,0,1076.02904225
101,0.00362341245465725,29.94820601,21.1523275742857,0,2.99811148314286,1,1,0,1089.38574714286
102,0.0035812985386194,30.528648825,17.25025083625,0,2.999997470375,1,1,0,1103.059968875
103,0.00353593205787662,30.6444599557143,15.6820626214286,0,1.95298458814286,1,1,0,1116.904002
104,0.00348959213568586,30.59446215875,15.44322031,0,1.4980739,1,1,0,1130.730923125
105,0.00344312053406655,30.4911819557143,14.8698765414286,0,1.49905574157143,1,1,0,1144.55025414286
106,0.00339723201619533,30.34107703,15.11966130125,0,1.4990370255,1,1,0,1158.277533875
107,0.00335343518009187,30.3012973014286,15.0783030314286,0,1.49905574157143,1,1,0,1171.99308014286
108,0.00332450638681718,30.36744736375,15.5317215875,0,1.4990370255,1,1,0,1185.68656075
109,0.00334320975348501,30.4962894171429,15.8375691942857,0,1.49905574157143,1,1,0,1199.44688971429
110,0.0033682291118305,30.670811925,15.60391297375,0,1.4990370255,1,1,0,1213.251385
111,0.00339626460756066,30.7925768242857,14.6913265442857,0,1.49905574157143,1,1,0,1227.15184
112,0.00343899093169883,30.72367241625,4.56695862175,0,1.4990370255,0.25,0.25,0,1241.04997175
113,0.00348419625985958,30.3194578171429,2.088586411,0,1.49905574157143,0,0,0,1254.86409828571
114,0.00352492266229588,29.83966394125,1.73904375175,2.941803904,1.4990370255,0,0,0,1268.443989875
115,0.00353549774502907,28.8900575942857,1.45031385885714,14.9841345128571,1.49905574157143,0,0,0,1281.75511757143
116,0.0035304120862285,27.96982640125,1.362268410375,3.34606273425,1.50206043825,0,0,0,1294.5546585
117,0.00353349768412857,27.1384787914286,1.37609999,13.9408325541429,0.560143381285714,0,0,0,1307.04524328571
118,0.00354695441898017,25.455561525,1.54163000725,18.508598415,-6.667548630375,0,0,0,1318.91801725
119,0.00358288505972718,23.5518396385714,1.59245750857143,20.0181506985714,-14.2291692404286,0,0,0,1329.99731857143
120,0.00362889645905745,21.547161565,1.5731952455,18.449285745,-20.94329271125,0,0,0,1340.0939535
121,0.00367631480052267,19.5477311514286,1.70250934614286,23.10682562,-18.4429793342857,0,0,0,1349.31845242857
122,0.00372402380617451,16.52785114875,2.097444313125,28.39529713875,14.05525115875,0,0,0,1357.309818875
123,0.00377158543164586,12.0600036814286,1.81111857485714,31.7239077828571,120.900770134286,0,0,0,1363.72555885714
124,0.00381852861564013,8.817383322,2.04172399875,11.901887745125,276.667934,0,0,0,1368.295356
125,0.00386386167094341,8.29145515728571,6.74959347871429,0.0133332672857143,390.3276845,0,0,0,1371.89286185714
126,0.00390015541897125,7.908530048125,11.21983282525,0,476.8935535875,0,0,0,1374.2646895
127,0.00389832811102874,7.59789237342857,15.5263863828571,0,497.608582442857,0,0,0,1374.85271442857
128,0.00388780987120235,8.01756828125,15.65163083375,0,469.8521940375,0,0,0,1373.418621625
129,0.00385784229918948,8.91702694242857,18.7978987742857,0,398.561251114286,0,0,0,1370.351555
130,0.00381315699654869,11.03929133175,25.05080450875,0,175.0141714225,0,0,0,1366.01725075
131,0.00376632747103574,13.8757309228571,28.6256544585714,0,16.7150660014286,0,0,0,1360.66585771429
132,0.00371880035939131,17.05053348875,29.45966612875,0,-13.38468019175,0,0,0,1353.913356875
133,0.00367105856461939,20.1810643814286,29.25287454,0,-31.8910532485714,0,0,0,1345.70264714286
134,0.00362342840733092,23.0569985925,28.147595335,0,-24.40161319375,0,0,0,1335.947275125
135,0.00357646535723377,25.3493047385714,27.2550576742857,0,-8.184904273,0,0,0,1325.01933785714
136,0.00353418599057447,27.290021935,27.09325327375,0,-0.22328651925,0,0,0,1313.081776875
137,0.0035058009537163,28.9976853757143,21.5631814528571,0,3.00059913385714,0,0,0,1300.356526
138,0.00348617558133277,29.66996880125,21.329894935,0,2.555374904875,0,0,0,1287.046743125
139,0.00347962464469572,30.4106904071429,22.7124199985714,0,2.44852615428571,0,0,0,1273.49618314286
140,0.00347673366626851,31.31562363,23.004882235,0,11.30950270475,0,0,0,1259.533808375
141,0.00346387568234085,32.54576263,22.5928826,0,2.832678788,0.285714285714286,0.142857142857143,0,1245.12310071429
142,0.0034713586104163,33.76066326,21.29344870375,0,4.49208344225,2,1,0,1230.107443375
143,0.00349282867634451,34.5057470971429,20.0491907757143,0,4.497167225,2,1,0,1214.67334414286
144,0.00348805271547217,35.02694516125,19.78739009,0,4.497111076875,2,1,0,1198.948588125
145,0.00349351452630843,35.5206528014286,17.2246616328571,0,4.49606651042857,2,1,0,1183.02587714286
146,0.00352939649806712,35.82851380125,17.01102159375,0,5.2188903465,2,1,0,1166.883921
147,0.00356267429329928,36.0934026842857,16.3475659157143,0,4.79699706542857,2,1,0,1150.65058071429
148,0.00356781871903418,36.31704038,16.04127598125,0,4.497709330875,2,1,0,1134.27056325
149,0.00355293266238705,36.42568071,7.84532951685714,0,4.497167225,2,1,0,1117.84093371429
150,0.00351536901814044,36.053732755,2.2691055775,0.00495701125,4.497111076875,2,1,0,1101.431229
151,0.00347159579881826,35.4051773371429,1.42172922814286,7.033035894,4.497167225,2,1,0,1085.29224128571
152,0.00342964838850333,34.6272106375,1.391919991625,1.054330827125,4.497111076875,2,1,0,1069.472817125
153,0.00340998236073167,33.92009362,1.40717475657143,0,4.497167225,2,1,0,1053.99127928571
154,0.00343362179115339,32.97130422125,1.415493344375,0,4.497111076875,2,1,0,1038.873473
155,0.00343737624239,32.09733796,1.40728627257143,0,4.497167225,2,1,0,1024.19021057143
156,0.00343359425584313,31.20259021125,1.4392841075,0,4.497111076875,2,1,0,1009.88016675
157,0.00344726062928059,30.3221437714286,2.46964577228571,0,4.497167225,2,1,0,995.992593242857
158,0.00346085167517627,29.43787851,1.469622791625,0,4.497111076875,2,1,0,982.484549575
159,0.00349023784109182,28.56180627,3.38720043842857,0,4.497167225,2,1,0,969.388214542857
160,0.0035314925560794,28.0015403925,17.1444322425,0,4.49343558875,2,1,0,956.6389328
161,0.00355648411325406,28.3148964128571,18.1555457371429,0,2.57535974157143,2,1,0,943.9571609
162,0.00354809170531196,28.99786549375,18.429094855,0,4.495941633375,2,1,0,931.0005400125
163,0.00354890784845181,29.5900659714286,13.5748644628571,0,4.49936865485714,2,1,0,917.770789385714
164,0.00358305016386155,29.7320842075,10.76853438125,0,3.184245794375,2,1,0,904.33620395
165,0.00362745668211895,29.5690368742857,6.36656186585714,0,2.22386844714286,2,1,0,890.940610042857
166,0.00367014007774093,28.9133950075,5.362116815875,0,3.43634048875,2,1,0,877.7098056875
167,0.00368997878371236,28.1606938428571,10.8145660115714,0,4.50195386228571,2,1,0,864.834728914286
168,0.00367764371541202,27.99477528,12.207739195,0,4.49695218775,2,1,0,852.1573456875
169,0.00367925283855427,27.9947869242857,11.8634091,0,4.49955336042857,2,1,0,839.5180498
170,0.00371518376445865,27.986201495,11.75065889875,0,5.64228239875,2,1,0,826.8585202875
171,0.00376101961088658,27.9503513957143,11.6123039657143,0,5.75378363614286,2,1,0,814.2339704
172,0.00380805056362001,27.90153039625,12.596433045,0,4.49904005625,2,1,0,801.605183575
173,0.00385415456017875,27.8530591085714,11.9355711728571,0,4.497167225,2,1,0,789.022907242857
174,0.00388739380301344,27.8036752525,11.30919253,0,4.497111076875,2,1,0,776.438030425
175,0.00390146149418437,27.7183663628571,11.3249580342857,0,4.497167225,2,1,0,763.908551857143
176,0.00393736518910408,27.66860688375,13.04796383375,0,4.499034495875,2,1,0,751.3897763625
177,0.00397327898001813,27.6668840028571,12.5210497971429,0,3.61165390071429,2,1,0,738.901640142857
178,0.00399421578771933,27.671910885,12.04299536875,0,3.586016183125,2,1,0,726.3941378625
179,0.00400252106796258,27.6534119242857,11.42678025,0,3.93680525228571,2,1,0,713.908755385714
180,0.00400581301445938,27.58656355125,11.388932865,0,2.995881694875,2,1,0,701.4234924125
181,0.004008569246919,27.5286377971429,13.3868135,0,3.722066196,2,1,0,688.986870057143
182,0.00401144409622527,27.50464177,12.96142676375,0,3.767196604875,2,1,0,676.5423772875
183,0.00403818874020265,27.46021514,13.9270433928571,0,3.00352124814286,2,1,0,664.139902
184,0.00408049051349914,27.47228354125,13.75973365125,0,5.429270357,2,1,0,651.7262211625
185,0.0041211558803213,27.53501753,13.4583276828571,0,5.99611014171429,2,1,0,639.311339185714
186,0.00413275608423142,27.623399575,15.31797842,0,4.404777579125,2,1,0,626.8444298625
187,0.00413709784277967,27.7500785842857,15.9158767571429,0,3.056851812,2,1,0,614.352110185714
188,0.00416171405984002,27.92655616375,14.74970913625,0,5.377526652375,2,1,0,601.7697792625
189,0.0041885825986383,28.1004736914286,14.8715465228571,0,3.11143268842857,2,1,0,589.124905228571
190,0.00422806811847995,28.2762564525,14.88895543375,0,2.997190085875,2,1,0,576.384383625
191,0.00427052115898992,28.4672201414286,14.4665335414286,0,2.99811148314286,2,1,0,563.576873328571
192,0.00429146715027878,28.6362170875,14.4031465625,0,2.996201012625,2,1,0,550.6663211875
193,0.00427723075738118,28.8184858842857,14.40711042,0,3.55879685928571,2,1,0,537.700553914286
194,0.00426003778125936,28.99989839,14.3879588375,0,4.19037637225,2,1,0,524.6333919375
195,0.00426253941771065,29.1782130928571,14.4875046142857,0,3.00683438428571,2,1,0,511.501918257143
196,0.00429715044631321,29.3611847925,14.7979937975,0,3.860696998875,2,1,0,498.2704322375
197,0.00434097884351461,29.4509573114286,9.08801850414286,0,4.49922105942857,2,1,0,484.982484528571
198,0.00438408308522925,28.93161958875,7.2533183635,0,4.497111076875,2,1,0,471.7650272
199,0.00441341003843506,28.1056803385714,12.7480800344286,0,4.49750501914286,2,1,0,458.891786014286
200,0.00439669614235552,27.9456065625,16.03871824,0,4.503960075,2,1,0,446.2474066375
201,0.00436551377894324,28.0417317828571,14.9608987114286,0,2.32327223457143,2,1,0,433.614271828571
202,0.0043388077261881,28.2317435975,14.64556350125,0,2.995902540875,2,1,0,420.8972132125
203,0.00430400704639002,28.3614724114286,13.60731147,0,2.99879520214286,2,1,0,408.116749285714
204,0.00426151378149542,28.310659185,11.8834146975,0,3.438279963875,2,1,0,395.302984675
205,0.00422752408465626,28.1988937514286,13.16652781,0,4.50195386228571,2,1,0,382.544431614286
206,0.00421993721685443,28.13441360625,15.50709013375,0,4.497111076875,2,1,0,369.8176204625
207,0.00423284077086727,28.2825660042857,15.6999342485714,0,4.497167225,2,1,0,357.0858821
208,0.00424619179737256,28.534522505,15.31165961125,0,4.495073327125,2,1,0,344.2469437125
209,0.00424381537317598,28.7761183371429,14.6468622028571,0,5.13863900271429,2,1,0,331.313748328571
210,0.00424179020196735,29.01959626875,14.920905915,0,4.500003181625,2,1,0,318.2530722375
211,0.00425651145472653,29.2447405457143,14.7948960671429,0,4.497167225,2,1,0,305.102451814286
212,0.00426483381560677,29.428134325,14.578106055,0,4.497111076875,2,1,0,291.8425653125
