"Time","Perspiration","Speed","Acceleration","Braking","Steering","Phase","Activity","Failure","Distance"
0,0.004167875978868,0,2.60835199914286,0,5.91259334271429,0,0,0,-13.33467551
1,0.00419094989475632,0,2.64393137285714,0.00466316028571429,5.99822897257143,0,0,0,-13.3344091428571
2,0.00421074381069541,0,2.6365462585,3.91270238675,5.996148102375,0,0,0,-13.33397629625
3,0.00419227514139377,0,2.615833595,40.4584469242857,5.99622296657143,0,0,0,-13.3341427757143
4,0.00415235105078193,0,2.42825241125,64.91839077875,5.996148102375,0,0,0,-13.33397629625
5,0.00411305214547361,0.000124071714285714,2.278140901,68.3972901642857,5.99622296657143,0,0,0,-13.3341427757143
6,0.00409582901262673,0.00152823375,2.26061120175,50.8248138425,6.012469605875,0,0,0,-13.3340532675
7,0.00408308255410594,0.401271681142857,9.39845025114286,0.14335427,-9.69458944771429,0,0,0,-13.2839192628571
8,0.00404676118005088,1.6688793875,19.46517267625,0.001997120875,-98.6772149775,0,0,0,-12.85079440375
9,0.00400883082326426,3.901423157,20.1287945914286,0,-178.644827842857,0,0,0,-11.6260804085714
10,0.00399155779512115,6.091971388375,19.40027943875,0,-110.41682067,0,0,0,-9.371099769
11,0.00398107900291865,7.755101652,22.7510603142857,0,-6.12948452157143,0,0,0,-6.31264699457143
12,0.00394948560928374,9.231966664125,22.53000283375,0,78.98951939375,0,0,0,-2.565683401625
13,0.00390850349354484,10.9298143371429,22.8594688742857,0,97.8069804242857,0,0,0,1.95209797414286
14,0.00387711373827469,12.7424837325,23.642602465,0,49.95506503625,0,0,0,7.296531858625
15,0.00388273541692119,14.4200354614286,26.1311539985714,0,3.15126347957143,0,0,0,13.3666537685714
16,0.00391922417255088,16.21261837625,24.6672657275,0,-16.9460778325,0,0,0,20.22778164
17,0.00396238267755863,17.9585305985714,25.0750242714286,0,-19.0291813442857,0,0,0,27.9039180142857
18,0.0040049196582634,19.62343830625,25.17611223375,0,-5.9753525975,0,0,0,36.39841937625
19,0.00403846768672241,21.2781982414286,25.5694718171429,0,-1.73082729871429,0,0,0,45.6323162157143
20,0.00403636103973939,22.62868580375,25.1625798475,0,0.019732152125,0,0,0,55.56761916375
21,0.00399926912251034,23.8801878314286,25.6065186042857,0,1.19889383771429,0,0,0,66.06371223
22,0.00395134571928895,25.20596472625,25.28661023625,0,1.498438771625,0,0,0,77.1527429725
23,0.0039002070716454,26.3782161914286,23.0029382057143,0,1.49905574157143,0,0,0,88.8147655042857
24,0.00384758671739275,26.89004141875,24.54649505625,0,1.4990370255,0,0,0,100.8542254175
25,0.00379428529493068,27.6349017457143,25.2444778428571,0,1.49795502671429,0.428571428571429,0.857142857142857,0,113.140868271429
26,0.0037406912008086,28.62889305875,25.2951538575,0,2.226694244625,1,2,0,125.856273375
27,0.00368711612298024,29.4382418271429,24.1295446028571,0,2.997473989,1,2,0,138.9768086
28,0.00363388844131393,30.02948437125,21.52111156875,0,2.998074051,1,2,0,152.4198800375
29,0.00358146073207385,30.4712986157143,22.2540108985714,0,2.99811148314286,1,2,0,166.092025042857
30,0.00353093642620192,30.84163249625,15.89387678125,0,2.998074051,1,2,0,179.9572311
31,0.00348564355997334,30.7160519571429,18.7722797871429,0,2.99811148314286,1,2,0,193.874534471429
32,0.00346117766679777,30.6213074925,19.1729401975,0,2.998074051,1,2,0,207.717803125
33,0.00346112849692486,30.6428128771429,20.7370991771429,0,2.99811148314286,1,2,0,221.557195042857
34,0.00345606896256167,30.7455389775,18.52267728375,0,2.998074051,1,2,0,235.41818955
35,0.00345254288273832,30.6586655357143,7.49970987385714,0,2.99811148314286,1,2,0,249.303733571429
36,0.00347661735255946,30.2074086825,4.5684620485,0,2.998074051,1,2,0,263.0549442125
37,0.00351807639558407,29.6996469371429,6.76329392142857,0,2.99811148314286,1,2,0,276.593066685714
38,0.00356239303190966,29.14057891875,17.40807901125,0,2.998074051,1,2,0,289.8840200375
39,0.00360061998857861,28.9868711671429,19.7117786842857,0,2.99811148314286,1,2,0,302.990706557143
40,0.00360906088354037,29.2474085,20.90494983875,0,2.998074051,1,2,0,316.1397230875
41,0.00359408913003339,29.5048690171429,19.3116481914286,0,2.99811148314286,1,2,0,329.415590042857
42,0.00360293298047848,29.552993585,20.64092044625,0,2.998074051,1,2,0,342.75677295
43,0.00362924518164417,29.6155002914286,21.8221729928571,0,2.99811148314286,1,2,0,356.120896657143
44,0.00364340989606131,29.866637595,19.98475611375,0,2.998074051,1,2,0,369.552884175
45,0.00363189233959792,30.02947208,18.4559454242857,0,2.99811148314286,1,2,0,383.091093414286
46,0.00360363911700847,30.0121073525,18.73005923875,0,2.998074051,1,2,0,396.652109375
47,0.00357469228838334,30.00940751,19.3611223,0,2.99811148314286,1,2,0,410.212015785714
48,0.00355624624430167,30.1054673175,19.30288942125,0,2.99886883825,1,2,0,423.7822490625
49,0.0035653693930206,30.2510160328571,18.8615847085714,0,2.93375165857143,1,2,0,437.423486471429
50,0.00359585694443698,30.3492185325,23.42804152875,0,1.484584568875,1,2,0,451.1042541625
51,0.00361806797429833,30.73130059,23.1429224171429,0,1.49875031085714,1,2,0,464.888471514286
52,0.003603835964968,31.23195214625,24.10004295125,0,1.4990370255,1,2,0,478.881756625
53,0.00356870789806208,31.6855725071429,21.8932555914286,0,1.49905574157143,1,2,0,493.094718742857
54,0.00353441870399311,31.96657120625,18.96797357625,0,1.4990370255,1,2,0,507.4759248125
55,0.00351016289396116,32.0568328185714,17.3809100985714,0,1.49905574157143,1,2,0,521.945265
56,0.00348960010009897,32.0829175375,18.50053401125,0,1.4990370255,1,2,0,536.4341419
57,0.00346227492526004,32.0083582885714,5.06299452571429,0.00601589157142857,1.49905574157143,1,2,0,550.9301297
58,0.00343054444179347,31.37603616875,4.83860403575,8.391509245375,1.4990370255,1,2,0,565.2517497125
59,0.00340512629186369,30.3068851642857,4.91787069842857,5.90406361771429,1.49905574157143,1,2,0,579.210769942857
60,0.00340232968193837,29.25769226625,13.59840964375,0.02356546525,1.4990370255,1,2,0,592.6379712625
61,0.00343009422176942,28.9026568528571,17.8919279442857,0,1.49905574157143,1,2,0,605.761183571429
62,0.00347243121934064,28.84466596625,16.80924025,0,1.4990370255,1,2,0,618.792454575
63,0.00351571905539512,28.8932927328571,17.4122011714286,0,1.49905574157143,1,2,0,631.839768114286
64,0.00354779068304406,28.9987670175,17.46334314,0,1.4990370255,1,2,0,644.9054395375
65,0.003545324013702,29.0343967842857,15.0393149685714,0,1.49905574157143,1,2,0,658.024919928571
66,0.00352629728119835,29.0202063125,18.500538665,0,1.4990370255,1,2,0,671.132544525
67,0.00351982673861779,29.1128912071429,18.41549735,0,1.49905574157143,1,2,0,684.264332114286
68,0.00353733979180743,29.1886380475,16.238445485,0,1.4990370255,1,2,0,697.43217315
69,0.00357274854644943,29.2188575314286,17.5980660757143,0,1.49905574157143,1,2,0,710.627997971429
70,0.0036085780084582,29.26901438125,18.20594431375,0,1.4990370255,1,2,0,723.8286996125
71,0.00362017270648729,29.3413640757143,18.4198585171429,0,1.49905574157143,1,2,0,737.077913914286
72,0.003603230874609,29.40863636,19.5609897575,0,1.4990370255,1,2,0,750.34106005
73,0.00358495524901688,29.5069333885714,20.3036272542857,0,1.49905574157143,1,2,0,763.657662528571
74,0.00356086413166054,29.72868636,19.62371044,0,1.4990370255,1,2,0,777.0193052875
75,0.0035220308978108,29.9632220485714,19.1974273,0,1.49905574157143,1,2,0,790.514937485714
76,0.00347707886346704,30.14177246875,18.23773849,0,1.4990370255,1,2,0,804.080339325
77,0.00343697313558558,30.3123802471429,17.7496640414286,0,1.49905574157143,1,2,0,817.747148828571
78,0.00341379678210233,30.29217733,18.19269723125,0,1.4990370255,1,2,0,831.4308792125
79,0.00340277470199661,30.1886455314286,11.4142118778571,0,1.49905574157143,1,2,0,845.111135814286
80,0.00340410191583487,29.85436656625,17.74686779875,0,1.4990370255,1,2,0,858.6616526625
81,0.00342112106768123,29.7029842171429,19.6511852757143,0,1.49905574157143,1,2,0,872.116504914286
82,0.00344978402673003,29.7721936575,20.04485028875,0,1.4990370255,1,2,0,885.53105815
83,0.00347788355211314,29.9049377085714,19.73809897,0,1.49905574157143,1,2,0,899.016890814286
84,0.00349851840905419,29.90245749625,16.94313577125,0,1.4990370255,1,2,0,912.5211841625
85,0.00350835910011199,29.8130690128571,17.2625106157143,0,1.49905574157143,1,2,0,926.015698671429
86,0.00350022066608278,29.6828934125,15.99883853375,0,1.4990370255,1,2,0,939.4414612875
87,0.00347325705011755,29.5114449985714,14.8296126742857,0,1.49905574157143,1,2,0,952.828698542857
88,0.00343289292789949,29.31152862,14.27745272625,0,1.4990370255,1,2,0,966.1017564375
89,0.00339212906862428,29.0935772442857,16.3105485685714,0,1.49905574157143,1,2,0,979.305900657143
90,0.00336752517569839,28.97348540625,21.26569067375,0,1.4990370255,1,2,0,992.400544325
91,0.00337191733888501,29.0787017914286,20.0859182214286,0,1.49905574157143,1,2,0,1005.51843928571
92,0.00339255264517895,29.18827869125,19.9471598775,0,1.4990370255,1,2,0,1018.66685875
93,0.0034244006361868,29.2858568342857,19.0605689342857,0,1.49905574157143,1,2,0,1031.88487228571
94,0.00346789300822177,29.3805398625,21.74081168125,0,1.4990370255,1,2,0,1045.12073525
95,0.00351479068997845,29.60250652,21.3728322142857,0,1.49905574157143,1,2,0,1058.44639242857
96,0.00355964660497598,29.886597225,22.6699048525,0,1.4990370255,1,2,0,1071.87139525
97,0.00359312338415567,30.1583630328571,21.1506262857143,0,1.49905574157143,1,2,0,1085.445023
98,0.00358900415491174,30.3864967925,20.1016403925,0,1.4990370255,1,2,0,1099.109786625
99,0.00355612642717202,30.5625711028571,21.0662983057143,0,1.49905574157143,1,2,0,1112.88603971429
100,0.00352235122068769,30.77280296375,18.5938513475,0,1.4990370255,1,2,0,1126.731886
101,0.00350361471751197,30.78883896,19.6608564571429,0,1.49871794742857,1,2,0,1140.65496685714
102,0.00349233977883675,30.7344870625,13.53731257925,0,1.48642440925,1,2,0,1154.540857125
103,0.00347992318350384,30.3490040428571,4.57878191028571,0,2.878017443,1,2,0,1168.37086471429
104,0.00345787015059765,29.80272699125,5.3897873315,0,2.99891483675,1,2,0,1181.94322375
105,0.0034231398622265,29.1781778685714,5.84181537385714,0,2.99811148314286,1,2,0,1195.286386
106,0.0033874901629295,28.49191655875,16.8076762025,0,2.998074051,1,2,0,1208.281407375
107,0.00337455457153072,28.2253304085714,14.0106745971429,0,2.99811148314286,1,2,0,1221.09449714286
108,0.0034019613284034,27.76722771,10.95364690125,0,2.99790259025,0.75,1.5,0,1233.73801125
109,0.00344715816711754,27.1895516571429,9.47842136428572,0,3.01512996271429,0,0,0,1246.164842
110,0.00349746669477195,26.56166412625,4.517664386,0,1.554414625125,0,0,0,1258.29341425
111,0.00354924425156852,25.7982281928571,14.1574077611429,0,1.49921855314286,0,0,0,1270.14238785714
112,0.00359938164095498,25.70841548875,20.88548219375,0,1.4990370255,0,0,0,1281.712760625
113,0.00364778605897712,25.9191390685714,5.605538534,0.851789405571429,1.49905574157143,0,0,0,1293.41816114286
114,0.00370054734240581,25.27576826125,3.831065553875,13.928963162125,1.50267544675,0,0,0,1304.99286425
115,0.00375485165874833,23.4484169742857,3.757934045,23.1210805671429,-1.59041156814286,0,0,0,1316.08372614286
116,0.00380951175817795,20.713816735,3.3248244325,24.81206040875,-18.44266073875,0,0,0,1326.03917175
117,0.00386410161081192,18.2309996757143,3.01188059757143,21.12210195,-36.1523836342857,0,0,0,1334.794351
118,0.00391813804771288,16.77831780375,3.06169264475,19.0298328425,-38.23675707125,0,0,0,1342.562342
119,0.00397044407700184,15.0682564785714,3.05624381714286,23.9863906642857,6.21693180671429,0,0,0,1349.58688985714
120,0.00401484082346569,12.1977292275,3.380274035375,28.48659116875,123.22497917375,0,0,0,1355.583998875
121,0.00404180623323539,9.02661581757143,3.480230181,26.5739486457143,296.213717328571,0,0,0,1360.38665071429
122,0.004071291534424,7.115883484625,3.249838663375,8.879874783,499.4426901125,0,0,0,1363.7193775
123,0.00411731642026958,6.362928152,10.3070636268571,0.0166901115714286,624.922919128571,0,0,0,1365.64945914286
124,0.00416974000652385,6.0291997075,17.063985185,0,627.9677043375,0,0,0,1365.704421875
125,0.00422353925717434,6.64052863057143,19.01049924,0,578.1063031,0,0,0,1364.18102857143
126,0.00427770219356893,8.289347386125,21.55314203,0,332.5787793375,0,0,0,1361.12228825
127,0.00433181160774138,10.1345775082857,23.1122386142857,0,93.0965079671429,0,0,0,1357.14681114286
128,0.00438558534006138,11.83026913,23.6610460275,0,4.2629338295,0,0,0,1352.354255625
129,0.00443874982537056,13.6066633157143,24.9922581471429,0,-24.4464798957143,0,0,0,1346.77257714286
130,0.00449081942892318,15.4004897275,24.50849401375,0,-30.69845082375,0,0,0,1340.244322
131,0.00454099633317675,17.1908466014286,23.60098773,0,-18.2791028742857,0,0,0,1332.89725614286
132,0.00458684789505957,18.58257716375,23.4081291875,0,-2.28724136175,0,0,0,1324.76195225
133,0.00461950821616847,19.9546574014286,23.9289988471429,0,3.78555778842857,0,0,0,1316.06164128571
134,0.00461146853775574,21.29491517375,24.883511155,0,0.625909321375,0,0,0,1306.6991015
135,0.00457267310989267,22.5720268957143,24.0553924314286,0,0.549401298,0,0,0,1296.81338557143
136,0.00452480516643375,23.8992478575,22.72596161625,0,4.507352974,0,0,0,1286.2807355
137,0.00447381936193114,25.1491448485714,22.9829773057143,0,2.91941308628571,0,0,0,1275.21829757143
138,0.00442117717453702,26.2704748225,21.50416265375,0,4.310245973625,0,0,0,1263.57032625
139,0.00436759681964585,27.1838202128571,22.1339149871429,0,2.99667495114286,0,0,0,1251.51231
140,0.00431337936131409,28.06968327375,21.1364493725,0,2.998074051,1,1,0,1239.012414375
141,0.00425874722928287,28.8003390942857,19.5762050385714,0,2.99811148314286,2,2,0,1226.17348614286
142,0.00420381285809288,29.30428533375,19.2105964275,0,2.998074051,2,2,0,1213.031738625
143,0.00414867828319938,29.6325171828571,17.6939664442857,0,2.99811148314286,2,2,0,1199.73081928571
144,0.00409340488251493,29.84380569875,19.14190330625,0,2.998074051,2,2,0,1186.282276125
145,0.00403805441952456,30.2567305185714,23.0908077857143,0,2.99811148314286,2,2,0,1172.74786142857
146,0.00398267567653523,31.0051206325,21.27712791,0,2.997915161875,2,2,0,1158.8909895
147,0.00392731920578209,31.6487616757143,19.9955464585714,0,3.00049761842857,2,2,0,1144.75490914286
148,0.00387204203706716,32.14798184125,19.10514877125,0,4.283984704125,2,2,0,1130.31778875
149,0.00381690445618438,32.3639450842857,10.8746965048571,1.12857142857143e-05,4.49766872657143,2,2,0,1115.74893757143
150,0.00376200005369813,32.176263525,8.66812204675,0.53610296825,4.499034495875,2,2,0,1101.155794
151,0.00370743692523905,31.6907327771429,4.993438843,16.4033643657143,3.45204033,2,2,0,1086.71154228571
152,0.00365342454141798,30.11432194375,4.43950015,21.0979015225,2.9971109255,2,2,0,1072.711894375
153,0.00360025818924753,28.2317012328571,4.12064692457143,16.16112345,2.99811148314286,2,2,0,1059.559368
154,0.00354865112491765,27.3325509325,8.3390407115,1.262035836125,2.998074051,2,2,0,1047.02250275
155,0.00350013294513096,26.8795017,12.8175964585714,0,2.99811148314286,2,2,0,1034.80708014286
156,0.00346131183569382,26.83496319,16.621332405,0,2.998074051,2,2,0,1022.6556925
157,0.00345313898672221,26.93556785,18.2310723285714,0,2.99811148314286,2,2,0,1010.53017871429
158,0.00348199190183316,27.09547840375,16.03248333,0,2.996150632125,2,2,0,998.30999685
159,0.00352471920899186,27.0408469285714,12.5118715014286,0,4.04323837885714,2,2,0,986.084980742857
160,0.00357098222709111,26.87053077875,11.0320630975,0,4.499997621375,2,2,0,973.8915524
161,0.00361670383961563,26.6593515485714,14.9726243285714,0,3.61275461571429,2,2,0,961.809723742857
162,0.00365556403104426,26.66049724875,17.72041391625,0,2.9971109255,2,2,0,949.7596542625
163,0.00366632748299073,26.7655112428571,15.9981729014286,0,2.99811148314286,2,2,0,937.700980642857
164,0.00364150561157843,26.80689152625,16.2758448,0,2.999898206375,2,2,0,925.586096875
165,0.00362025613553236,26.8234998028571,16.2214317185714,0,3.71874893828571,2,2,0,913.481562571429
166,0.00362553690139972,26.8960248425,18.8844445025,0,3.6322530845,2,2,0,901.3401127125
167,0.00364207106245567,27.0933231885714,19.0655919285714,0,2.996057649,2,2,0,889.161335642857
168,0.00365286982396939,27.30712070625,17.77756349625,0,2.998074051,2,2,0,876.8593973625
169,0.00365421352181375,27.5065099785714,16.7511768071429,0,2.99811148314286,2,2,0,864.487085642857
170,0.00365707413349267,27.62730586375,16.25686844375,0,2.998074051,2,2,0,852.0132827375
171,0.00367090451109788,27.6889398257143,16.5278783371429,0,2.99811148314286,2,2,0,839.529266857143
172,0.00368001957098104,27.6652408775,15.77333918,0,2.998074051,2,2,0,827.008727775
173,0.00366777689790437,27.5815155442857,19.9577666842857,0,2.99811148314286,2,2,0,814.541498242857
174,0.00365853584954146,27.83450127375,19.43867804125,0,2.998074051,2,2,0,802.0173565375
175,0.00366517695147392,28.1733943114286,18.6434857442857,0,2.99811148314286,2,2,0,789.381577485714
176,0.00368036204903603,28.586182645,18.3993578,0,2.998074051,2,2,0,776.5476481375
177,0.00369005038657091,28.9500022542857,18.2953295328571,0,2.99811148314286,2,2,0,763.564137585714
178,0.00367083202834925,29.31490539125,18.06599945125,0,2.998074051,2,2,0,750.3893976875
179,0.00363028119695863,29.6708154542857,17.6027875585714,0,2.99806213485714,2,2,0,737.076909528571
180,0.00358463163215281,30.0134976075,18.52810529,0,3.015946195,2,2,0,723.5846504
181,0.00354073693351308,30.3769265957143,19.5695046085714,0,4.50344949042857,2,2,0,709.9561986
182,0.00351055530665465,30.66614795875,13.775592091375,0,4.49731314575,2,2,0,696.1437816125
183,0.00351326537950437,30.4867532742857,10.434605432,0,4.49478109,2,2,0,682.318638514286
184,0.0035402741050772,30.25966691,16.07876597125,0,3.21120042425,2,2,0,668.5965112625
185,0.00357488557585795,30.1801203185714,17.0072905885714,0,2.99760998157143,2,2,0,654.954536214286
186,0.00359410420833306,30.19623703625,17.05338214625,0,2.998074051,2,2,0,641.3076374
187,0.00358921953468927,30.27381265,16.2839441942857,0,2.99811148314286,2,2,0,627.655439685714
188,0.0035749358507849,30.24715224625,16.714664735,0,2.998074051,2,2,0,613.97223815
189,0.00356016364090781,30.2791547985714,18.2560717442857,0,2.99811148314286,2,2,0,600.3161193
190,0.00355498843952026,30.40805808,16.76333574875,0,2.998074051,2,2,0,586.591892025
191,0.00357058443253636,30.3502669614286,7.01904850814286,0.000447541571428571,2.99811148314286,2,2,0,572.862189657143
192,0.00360283756124315,30.01079023625,4.517314050875,0.29050063825,2.998074051,2,2,0,559.213101175
193,0.00363789058794287,29.4430510228571,12.5263989524286,0.0104210701428571,2.99811148314286,2,2,0,545.783513628571
194,0.00365858691209026,29.15712790875,18.25202076375,0,2.998074051,2,2,0,532.5548711
195,0.0036611327331109,29.2048276014286,16.3960938442857,0,2.99811148314286,2,2,0,519.3834474
196,0.00367363091597944,29.17714155,18.2341757425,0,2.998074051,2,2,0,506.1849620125
197,0.00370650242856018,29.2908936842857,18.72259858,0,2.99811148314286,2,2,0,492.996222728571
198,0.00374377173635762,29.30765440375,9.189000775375,0,2.998074051,2,2,0,479.7300558875
199,0.00377363804153794,28.7301958185714,10.2835928187143,0,2.99811148314286,2,2,0,466.606765428571
200,0.00378760025197816,28.24425091,16.8747715725,0,2.998074051,2,2,0,453.757582975
201,0.00378438398752514,28.2493896942857,15.8119742785714,0,2.99811148314286,2,2,0,441.003856785714
202,0.00378128680083811,28.32598175,14.74694980375,0,2.998188381875,2,2,0,428.217256425
203,0.00379245587110722,28.3779595785714,15.54259097,0,3.241101664,2,2,0,415.408968628571
204,0.00381212462563012,28.38782592625,15.3850400675,0,4.47730995425,2,2,0,402.57923825
205,0.00383259936318523,28.3215897571429,19.0169080357143,0,2.99081897228571,2,2,0,389.777765771429
206,0.00386404396542677,28.4046852925,14.438534445625,0,3.326753495375,2,2,0,376.9626372
207,0.00390576281954397,28.1929921385714,10.3417158777143,0,4.38873226714286,2,2,0,364.160823014286
208,0.00395490622313638,27.90594184125,14.4261020275,0,2.99751611175,2,2,0,351.5033528625
209,0.00400660394468167,27.8179720242857,14.5679207014286,0,3.55783596157143,2,2,0,338.921548585714
210,0.0040587488350507,27.7748573875,16.662756605,0,4.501127588625,2,2,0,326.36172565
