"Time","Perspiration","Speed","Acceleration","Braking","Steering","Phase","Activity","Failure","Distance"
0,0.00656496789835787,0,2.38380882971429,0,5.91259334271429,0,0,0,-12.96520088
1,0.00648300529046687,0,2.41354299928571,0.00395927485714286,5.99822897257143,0,0,0,-12.9649418914286
2,0.006522677512174,0,2.407584756625,17.535503793125,5.996148102375,0,0,0,-12.964521035
3,0.00663721411492305,0,2.399381445,40.7759286785714,5.99622296657143,0,0,0,-12.9646829028571
4,0.00676283104985515,0,2.29953642875,41.2919516825,5.9854206635,0,0,0,-12.96454922375
5,0.006891032287395,0.175646337428571,2.52123312971429,11.7525817317143,12.6147461465714,0,0,0,-12.9501569685714
6,0.0070193225187398,1.044755729875,11.999875743875,0.007866662,143.818335565,0,0,0,-12.67722713125
7,0.00714487057761363,2.69919649114286,17.2468586014286,0,238.000606642857,0,0,0,-11.88523852
8,0.00725129016524336,4.92766326275,16.65903975125,0,179.1554932875,0,0,0,-10.165069236375
9,0.00725668026258176,6.95975928428571,16.3664079242857,0,36.6684433882857,0,0,0,-7.56728130828571
10,0.00727663100292554,8.350043152625,20.330534785,0,-106.83648987875,0,0,0,-4.2398319595
11,0.00738344042527845,9.942058358,21.9791062042857,0,-151.6898124,0,0,0,-0.232745408857143
12,0.00749538944395163,11.95797945125,25.4867612725,0,-61.30779790875,0,0,0,4.657550297875
13,0.00755959522455716,14.4423154614286,26.59616565,0,23.26702988,0,0,0,10.5023686042857
14,0.0074839471226837,17.0328451075,27.7959572975,0,32.1805559075,0,0,0,17.57744902625
15,0.00736413915963384,19.6505305385714,28.1166030557143,0,21.0779890371429,0,0,0,25.8606702371429
16,0.0072364460027756,22.18163433375,28.0248033575,0,2.1734726505,0,0,0,35.3406536
17,0.00710590852244185,24.2412430257143,24.52414009,0,2.87658658271429,0,0,0,45.85723162
18,0.0069738573902253,25.7026076975,24.23288380125,0,2.99891483675,0,0,0,57.1501779375
19,0.00684099608801245,27.1252242157143,25.4239405628571,0,2.99811148314286,0,0,0,69.0660402714286
20,0.00670766645814771,28.06491521,15.73361231125,0,2.998074051,0,0,0,81.5847543025
21,0.00657414773726496,28.0883028542857,14.0413507514286,0,2.99742776442857,0,0,0,94.2798251757143
22,0.00644067641503187,28.02921172,18.29885088375,0,2.557868138875,0,0,0,106.95081805
23,0.00630752745907591,28.2787592357143,18.0238582185714,0,1.49426910442857,0.857142857142857,0.857142857142857,0,119.653782542857
24,0.00617516344901118,28.7080739075,17.92718874375,0,1.4990370255,1,1,0,132.5260720625
25,0.00604438695087655,29.0802062885714,17.2897970085714,0,1.49905574157143,1,1,0,145.586447785714
26,0.0059176495110872,29.15491735875,17.79523915,0,1.4990370255,1,1,0,158.7443221
27,0.00580576646815525,29.3364461285714,16.8605277428571,0,1.49905574157143,1,1,0,171.949155714286
28,0.00579570422914478,29.59412560125,17.042031145,0,1.4990370255,1,1,0,185.2640055
29,0.00589016757791847,29.9113039771429,16.7757742885714,0,1.49905574157143,1,1,0,198.703265757143
30,0.00599415695804673,30.24809677625,17.16802643375,0,1.4990370255,1,1,0,212.2956683
31,0.00604223865352668,30.59597085,17.9140135514286,0,1.49905574157143,1,1,0,226.042040542857
32,0.00595396199339361,30.9713382175,18.54618807125,0,1.4990370255,1,1,0,239.94229625
33,0.00583119598627867,31.2054793642857,7.11180500985714,0,1.49905574157143,1,1,0,254.0080278
34,0.00570241056272515,30.9073734825,3.417932532125,0,1.4990370255,1,1,0,268.04513775
35,0.00557193822969421,30.5617393957143,4.708928105,0,1.49905574157143,1,1,0,281.934328085714
36,0.00544138623103356,30.229781175,9.74118930025,0,1.504914975,1,1,0,295.6677376375
37,0.00531239101118996,29.9639118028571,10.2321787274286,0,2.69764414885714,1,1,0,309.266494228571
38,0.0051901020822157,29.7440949775,10.1220132505,0,2.9973614665,1,1,0,322.7526672125
39,0.00511167721674348,29.5923698471429,14.7241283042857,0,2.75517065142857,1,1,0,336.1554197
40,0.00513055586208461,29.61033676875,14.28682741375,0,1.5009660045,1,1,0,349.5228262125
41,0.00517010495686231,29.6640792142857,14.9159116942857,0,1.49900639328571,1,1,0,362.916330142857
42,0.00514659928356311,29.74552591125,16.61120692125,0,1.65753416925,1,1,0,376.3348203875
43,0.00505469291934052,29.8796241928571,14.8524325514286,0,3.00439374885714,1,1,0,389.807563842857
44,0.00498612320897205,30.01448908125,15.7599713875,0,2.998276120125,1,1,0,403.329549175
45,0.00504445487784194,30.1196939785714,14.3081152142857,0,2.99572534842857,1,1,0,416.920071142857
46,0.0051507851918178,30.12099538625,12.3828231625,0,1.8527883985,1,1,0,430.5349960125
47,0.00524226203283141,30.0261247742857,15.6911686985714,0,1.49855424,1,1,0,444.123905157143
48,0.00521377932760573,30.06452081,15.66972101,0,1.498878136375,1,1,0,457.6916905
49,0.00509986645209085,30.1860886442857,15.4032433871429,0,1.50144187657143,1,1,0,471.307454171429
50,0.00497260949269323,30.30513012375,16.1384162775,0,2.784947678625,1,1,0,484.96921715
51,0.00484182319556541,30.4158072571429,16.2086100871429,0,2.99861298485714,1,1,0,498.6932563
52,0.00470943415132822,30.52248299625,16.01606971375,0,2.998074051,1,1,0,512.45517235
53,0.0045763152301484,30.6687280114286,15.3522387242857,0,2.99811148314286,1,1,0,526.287152857143
54,0.00444288381899703,30.79880501,15.55694022125,0,2.998074051,1,1,0,540.16895395
55,0.00430946795207296,30.9327372985714,14.2522680385714,0,2.99811148314286,1,1,0,554.121009628571
56,0.00417640170524519,30.95062142375,17.061162215,0,2.998074051,1,1,0,568.0925370125
57,0.0040441245539926,31.0672275071429,15.52961784,0,2.99811148314286,1,1,0,582.100524128571
58,0.00391363584731294,31.1641177125,11.935626272625,0,2.998074051,1,1,0,596.1566113
59,0.00378763090269008,31.0277600442857,2.64606160528571,0,2.99811148314286,1,1,0,610.227155442857
60,0.00368900464177588,30.689931815,4.329898283125,0,2.998074051,1,1,0,624.1650667
61,0.00368097902232277,30.3403232728571,7.61375164428571,0,2.99811148314286,1,1,0,637.9620922
62,0.00370995332285475,30.0086321925,10.65317433875,0,2.99823294025,1,1,0,651.58911525
63,0.00372755434064301,29.8013091785714,12.9840038628571,0,2.99572534842857,1,1,0,665.099927157143
64,0.00370585913686415,29.7381252325,17.30093684375,0,1.8527883985,1,1,0,678.5332040125
65,0.00368468302311211,29.9285511271429,18.1017109385714,0,1.49850489171429,1,1,0,692.005352728571
66,0.00370140886696283,30.25325086125,17.99840360125,0,1.65753416925,1,1,0,705.593073
67,0.00371824991662317,30.5549855385714,17.7001095542857,0,3.00439374885714,1,1,0,719.330964757143
68,0.00370634740155688,30.84489128125,17.531285715,0,2.998117230875,1,1,0,733.187795575
69,0.00369416277915987,31.1089316057143,16.9711747257143,0,2.99811148314286,1,1,0,747.183835071429
70,0.00370612923685677,31.24557730625,15.41647851875,0,2.998074051,1,1,0,761.2644237625
71,0.00372336635278496,31.2814120928571,16.9072288757143,0,2.99811148314286,1,1,0,775.390586814286
72,0.00371980417619153,31.29645117,6.992623029875,0,2.998074051,1,1,0,789.518524075
73,0.00368955988000359,31.05623387,2.30256825942857,0,2.99811148314286,1,1,0,803.620146371429
74,0.0036557176878607,30.7030560825,2.883523405875,0,2.998074051,1,1,0,817.554809725
75,0.00363702826180045,30.3645574771429,2.62037089628571,0,2.99589494042857,1,1,0,831.360699157143
76,0.00362013615825777,30.05612091,2.788665405875,0,2.135155533875,1,1,0,844.996621
77,0.00361858780597442,29.7065417971429,6.34985741442857,0,1.49666411314286,1,1,0,858.504115642857
78,0.00367168279718444,29.29418117125,12.169144159375,0,1.48642440925,1,1,0,871.8214584875
79,0.00376403770860375,29.0559627014286,16.59034068,0,2.878017443,1,1,0,884.9908738
80,0.00386440450045552,29.00859685375,14.96127565,0,2.998743376,1,1,0,898.091501375
81,0.00395694652785233,28.9751962514286,11.7584989664286,0,3.01512996271429,1,1,0,911.208793314286
82,0.0040219193862448,28.79169683125,15.6220025075,0,1.552541586875,1,1,0,924.2359629375
83,0.00403219674689536,28.6883910242857,12.4016162985714,0,2.05894303171429,1,1,0,937.234668671429
84,0.00400249912491555,28.46773747125,14.720027825,0,3.002090562875,1,1,0,950.1269015875
85,0.00398396290060494,28.3800690814286,15.4323239314286,0,2.99811148314286,1,1,0,962.977938957143
86,0.00397902710248738,28.33321705,16.14756727875,0,2.99823294025,1,1,0,975.777095575
87,0.00394091837162683,28.3949564042857,17.2322961785714,0,2.99572534842857,1,1,0,988.598822357143
88,0.00388228172609086,28.54993948375,16.6334294325,0,1.7121633985,1,1,0,1001.448515325
89,0.00385530831778745,28.7249125142857,15.2299098071429,0,1.49855424,1,1,0,1014.39875014286
90,0.00385945813770719,28.83499272625,15.269470005,0,1.4990370255,1,1,0,1027.38786725
91,0.00385825133040845,28.9594088814286,15.1235222014286,0,1.49905574157143,1,1,0,1040.45753657143
92,0.00384765613887374,29.079971335,14.8877015475,0,1.50086118075,1,1,0,1053.55780125
93,0.00384181873362141,29.19234097,14.7562001271429,0,2.22190973942857,1,1,0,1066.73769757143
94,0.003847144621985,29.29213579375,15.05781086,0,2.996134576125,1,1,0,1079.938819125
95,0.00386106779448469,29.4051347471429,15.3058878757143,0,2.99811148314286,1,1,0,1093.20731271429
96,0.00385555796452573,29.5228542675,14.96493257,0,2.998074051,1,1,0,1106.50869
97,0.00382013820786947,29.6346924,14.6804557285714,0,2.99811148314286,1,1,0,1119.88516357143
98,0.00380007672429917,29.72956503125,14.79558009375,0,2.998074051,1,1,0,1133.280412375
99,0.00381296891082187,29.8038010928571,15.8205403271429,0,2.99811148314286,1,1,0,1146.74278828571
100,0.00380937654203357,29.826714735,14.734969905,0,2.998074051,1,1,0,1160.196068125
101,0.00378146159671261,29.8335841914286,14.42021174,0,2.99811148314286,1,1,0,1173.68381642857
102,0.00376754532361885,29.84417803625,14.354336205,0,2.998074051,1,1,0,1187.14508075
103,0.00376167288879109,29.8269347757143,14.3757534114286,0,2.99811148314286,1,1,0,1200.63560771429
104,0.00374120040786936,29.80730000625,15.08110550625,0,2.998074051,1,1,0,1214.08852225
105,0.00373661144097132,29.76587332,15.4231817457143,0,2.99811148314286,1,1,0,1227.56074671429
106,0.00377118082351911,29.60096782875,8.328999925875,0,2.998074051,0.25,0.25,0,1240.97615025
107,0.00384010092207115,28.8436580857143,7.86028538357143,0,2.99811148314286,0,0,0,1254.21557385714
108,0.00394728238857727,27.8733101975,5.3678028475,0,2.997915161875,0,0,0,1267.009830375
109,0.00407341046967239,26.9121296885714,2.45615939457143,0,2.99590731971429,0,0,0,1279.40581271429
110,0.00420281974651679,25.9645242575,2.428110820125,0,5.155684017375,0,0,0,1291.334303875
111,0.0043319442094475,25.0301473985714,2.50353115685714,0.00277782185714286,5.99305689971429,0,0,0,1302.87763914286
112,0.00445677383597847,24.07558033875,2.358337143375,5.051362503875,-1.272469924,0,0,0,1313.955674
113,0.00454963083763999,22.68692397,2.39725134957143,18.22566481,-21.1211802614286,0,0,0,1324.57277085714
114,0.00455756285283258,20.79449148875,2.47696880475,23.02131138625,-40.93910268625,0,0,0,1334.34714525
115,0.00456681214168009,18.4044481642857,2.33374058614286,25.0416987942857,-43.0885123214286,0,0,0,1343.07561514286
116,0.00460905385615517,15.74411124375,2.496583381375,27.1837607725,-13.3433820785,0,0,0,1350.42623275
117,0.00468088725676004,12.5429247257143,2.35021488,28.6020344985714,91.1085504028571,0,0,0,1356.521969
118,0.00476806123847459,9.675846799375,1.798048477125,19.73637804075,284.07812185,0,0,0,1361.379090125
119,0.00487335994698932,8.77938985728571,3.57181356214286,0.162458306285714,473.5233372,0,0,0,1365.43007714286
120,0.00499775442610564,8.321151185625,15.214473219125,0,592.5708607,0,0,0,1367.924783125
121,0.00512330296807858,8.69137906414286,17.3705807528571,0,592.964472928571,0,0,0,1367.77765314286
122,0.00524150128632186,9.9849753395,22.44490105375,0,427.1932489125,0,0,0,1364.662412875
123,0.00531308020517327,12.2469978114286,25.1079838657143,0,133.043357827143,0,0,0,1359.84914542857
124,0.00528955539372581,14.665356095,23.98628844375,0,-22.00292493825,0,0,0,1353.91462125
125,0.00519348870333507,16.5569141942857,26.5723447828571,0,-40.0511840914286,0,0,0,1346.98387542857
126,0.00507508142486776,18.8513695175,29.652066065,0,-13.438050017,0,0,0,1339.03683275
127,0.00496805197690996,21.6791552914286,29.1045559414286,0,-0.607393386285714,0,0,0,1329.92577157143
128,0.00489855861071694,24.39957035125,29.3194662825,0,0.14684765275,0,0,0,1319.4687765
129,0.00481721376475717,26.5239586014286,24.2849810985714,0,2.88429970857143,0,0,0,1307.94199071429
130,0.00471050841842113,27.572974495,15.22903745125,0,2.996239810375,0,0,0,1295.645155625
131,0.00460787075029532,27.6805663528571,10.4671406837143,0,4.10759820357143,0,0,0,1283.14686014286
132,0.00454710556269353,27.50776780125,14.1730734725,0,6.011722574125,0,0,0,1270.66282
133,0.00455242304899998,27.4952639771429,15.1989639028571,0,5.99414226257143,0,0,0,1258.25809542857
134,0.00463742347421865,27.61000143875,14.468693225,0,4.850862449875,0,0,0,1245.787643375
135,0.00474385147760517,27.7219819814286,15.5406624328571,0,4.49776643857143,2,1,0,1233.30670357143
136,0.00482253761455607,27.88203644,17.4260057175,0,3.769453858125,2,1,0,1220.729325
137,0.00492350322323479,28.0978471957143,16.8324684242857,0,2.99874897771429,2,1,0,1208.10522828571
138,0.00501609310976612,28.35014683,15.83059895,0,2.996150632125,2,1,0,1195.332929875
139,0.00501687373540647,28.5564935628571,15.27315706,0,4.04323837885714,2,1,0,1182.49548942857
140,0.00504938228023772,28.70854124125,14.82805331875,0,4.498074202375,2,1,0,1169.540399125
141,0.00515943789546398,28.8340185685714,14.8331518357143,0,4.497167225,2,1,0,1156.56165242857
142,0.00528685832754066,28.9608790975,15.50688549625,0,4.497111076875,2,1,0,1143.491876
143,0.00541695449635485,29.0929092414286,15.2991226157143,0,4.497167225,2,1,0,1130.39699857143
144,0.00554766287416909,29.2224462075,15.03178485375,0,4.497111076875,2,1,0,1117.21197975
145,0.00567801150266196,29.3470012514286,14.9156988971429,0,4.497167225,2,1,0,1103.99781185714
146,0.00580703277689263,29.4637117325,14.77929083125,0,4.497111076875,2,1,0,1090.6997295
147,0.0059331905756406,29.5645068114286,14.2992061671429,0,4.497167225,2,1,0,1077.38417514286
148,0.00605109938682879,29.65854167375,14.2114910575,0,4.497111076875,2,1,0,1063.990502625
149,0.00612299731007749,29.74584778,16.2956511842857,0,4.49257692614286,2,1,0,1050.58783671429
150,0.00605606302434386,29.86256490375,15.0095645575,0,5.508958723,2,1,0,1037.11472125
151,0.00593844920437369,30.0243130928571,15.8728469757143,0,5.99474324757143,2,1,0,1023.59952771429
152,0.00581191816986191,30.08457194125,7.50477926,0,5.550064240875,2,1,0,1009.99904025
153,0.00568225978218242,29.9164574085714,6.06407385328571,0,3.29379218114286,2,1,0,996.452740157143
154,0.00555096178584419,29.69449153875,11.495145647375,0,2.996748886375,2,1,0,982.9821168625
155,0.00541881424259855,29.6122647114286,15.1301965314286,0,4.04323837885714,2,1,0,969.611067342857
156,0.00528622217645134,29.73151357125,14.31882259875,0,4.49994724075,2,1,0,956.1944156875
157,0.00515353590354422,29.9153940328571,14.2246047685714,0,3.93965928985714,2,1,0,942.737795042857
158,0.00502112233685232,30.03844855875,14.6289367875,0,3.856976057125,2,1,0,929.181424
159,0.00488951001230235,30.1510614057143,14.2530504657143,0,4.49922105942857,2,1,0,915.598262357143
160,0.00476001854268001,30.2546955825,13.75006470625,0,4.497111076875,2,1,0,901.9409824875
161,0.00463734625329046,30.3233179671429,14.0608982642857,0,4.497167225,2,1,0,888.2669493
162,0.00456298586997109,30.36238045625,13.60985793375,0,4.497111076875,2,1,0,874.5475476125
163,0.00456220552156064,30.4111460528571,13.2902545885714,0,4.497167225,2,1,0,860.830727214286
164,0.00460259885435844,30.45632384875,13.98956666875,0,4.497111076875,2,1,0,847.0681208375
165,0.00462198774270208,30.5167400971429,13.9252430971429,0,4.497167225,2,1,0,833.307715214286
166,0.00455398444803456,30.57810868,13.96704135,0,4.497111076875,2,1,0,819.4978798375
167,0.00443820402914218,30.6378888342857,13.2789051928571,0,4.497167225,2,1,0,805.680881228571
168,0.00431633657441109,30.64913268,13.59802764125,0,4.497111076875,2,1,0,791.8260289875
169,0.00420973615600261,30.6999194942857,13.9239044457143,0,4.497167225,2,1,0,777.978743385714
170,0.00418246189391232,30.729939355,14.5019753925,0,4.497111076875,2,1,0,764.0960221625
171,0.00420661812607604,30.7929044985714,14.1405992585714,0,4.497167225,2,1,0,750.209531585714
172,0.00422873178950081,30.88359415125,13.63836998,0,4.497111076875,2,1,0,736.2724275375
173,0.00422648011054559,30.97637206,13.93806229,0,4.497167225,2,1,0,722.309783814286
174,0.00420710753451694,30.951740155,3.902211489625,0,4.497111076875,2,1,0,708.301749025
175,0.00415076084369895,30.6421265528571,2.35327720857143,0,4.497167225,2,1,0,694.391770542857
176,0.00407708310748803,30.30745342125,5.886170467375,0,4.497111076875,2,1,0,680.6163018625
177,0.00403151481838854,30.0036473385714,15.84404146,0,4.497167225,2,1,0,667.007285171429
178,0.0040136884253038,30.03688346,15.58058859,0,4.497111076875,2,1,0,653.4456715
179,0.00403079610569914,30.1942009814286,14.0269274428571,0,4.497167225,2,1,0,639.849651742857
180,0.00407814240583514,30.186555495,10.34655717825,0,4.497111076875,2,1,0,626.1936567375
181,0.00414491661740723,30.0743707642857,14.1324322042857,0,4.497167225,2,1,0,612.589994857143
182,0.00424820426231987,30.04282932,13.53260048625,0,4.500811597625,2,1,0,599.008527875
183,0.00437034456297917,30.0765036857143,13.48853253,0,2.55538151085714,2,1,0,585.387246614286
184,0.00449210617793627,30.11424332125,13.9235049025,0,5.3718521755,2,1,0,571.6988287625
185,0.00458783496631205,30.1766224871429,16.1746142514286,0,5.75412232614286,2,1,0,558.087619428571
186,0.00461325078236565,30.29853620875,18.209780545,0,4.49904005625,2,1,0,544.425655825
187,0.00460657814870064,30.5657124657143,18.1474532071429,0,4.497167225,2,1,0,530.686226285714
188,0.00458019335626147,30.83416458875,17.1637530575,0,4.497111076875,2,1,0,516.811531275
189,0.00453887806766387,31.0910663914286,16.2743913471429,0,4.497167225,2,1,0,502.831475157143
190,0.00450468853562043,31.093627645,9.051210113875,0,4.497111076875,2,1,0,488.7627383125
191,0.00449672596521294,30.81814127,9.63163530357143,0,4.497167225,2,1,0,474.774003828571
192,0.004502354328845,30.5378282725,10.521993467875,0,4.497111076875,2,1,0,460.916791875
193,0.00449426465405935,30.3337603328571,13.7711776528571,0,4.497167225,2,1,0,447.173642042857
194,0.00447123528925256,30.23228141375,14.802279045,0,4.497111076875,2,1,0,433.48598405
195,0.0044504240711358,30.28456494,16.6905546957143,0,4.497167225,2,1,0,419.829389514286
196,0.00448608704216986,30.48532156125,15.6057108025,0,4.497111076875,2,1,0,406.1004772625
197,0.00457395395701278,30.5631636171429,5.51391997985714,0,4.497167225,2,1,0,392.303719814286
198,0.00465297748718217,30.27980728375,2.985020280125,0,4.497111076875,2,1,0,378.546831375
199,0.00471037624203731,29.9358038714286,7.33886027585714,0,4.497167225,2,1,0,364.9508209
200,0.00477670553748373,29.6485579925,12.196594416625,0,4.497111076875,2,1,0,351.4888971875
201,0.00485394548912192,29.5070648014286,13.8951597114286,0,4.497167225,2,1,0,338.1395016
202,0.00491937051156656,29.50585863375,16.17486506625,0,4.497111076875,2,1,0,324.8102148625
203,0.00496178872680032,29.6645578771429,17.1589148814286,0,4.497167225,2,1,0,311.4577746
204,0.00500972718818708,29.94861553,16.60551839,0,4.497111076875,2,1,0,297.9917741125
205,0.00508476590359212,30.2401705728571,15.6771632557143,0,4.497167225,2,1,0,284.406344714286
206,0.00514071281363469,30.47963675125,14.60250667,0,4.497111076875,2,1,0,270.6810653625
207,0.0051893236568791,30.5772984757143,14.5028892871429,0,4.497167225,2,1,0,256.893591885714
208,0.00528091550034979,30.61839042375,16.06665729875,0,4.497111076875,2,1,0,243.0760848625
209,0.00540398312546195,30.7219566,13.6415938585714,0,4.497167225,2,1,0,229.227819057143
210,0.00553046863151858,30.69136772125,11.25868891875,0,4.497111076875,2,1,0,215.3519608
211,0.00564592902683907,30.58992791,10.9502233928571,0,4.497167225,2,1,0,201.5158014
212,0.00568132070400357,30.481712625,11.1069254225,0,4.497111076875,2,1,0,187.7190207625
213,0.00570839522551142,30.3705590057143,14.4813332828571,0,4.497167225,2,1,0,173.979382385714
