"Time","Perspiration","Speed","Acceleration","Braking","Steering","Phase","Activity","Failure","Distance"
0,0.0042987972725426,0.00301041042857143,2.39266899614286,0.000151957571428571,19.2159283657143,0,0,0,-14.97626343
1,0.00430273716858444,0.00149395928571429,2.43279456571429,2.41655347785714,19.4942441614286,0,0,0,-14.9700851057143
2,0.00424326600053514,0.0001187195,2.408412846375,35.93921345125,19.4874813325,0,0,0,-14.96852604625
3,0.00417564634543945,0,2.39978623942857,33.86296111,19.4877246414286,0,0,0,-14.9765284
4,0.00412050993554001,0,2.39780542575,33.745470345,19.4874813325,0,0,0,-14.97973874875
5,0.00413592430343803,0,2.39366437414286,34.03155578,19.4877246414286,0,0,0,-14.9799185814286
6,0.00420235656228812,0,2.3657594225,35.03159653625,19.4874813325,0,0,0,-14.97968851
7,0.00427571881560202,0,2.37722653585714,39.3962609671429,19.4877246414286,0,0,0,-14.9739764885714
8,0.00435082700648185,0,2.51686577025,41.74808967125,19.4874813325,0,0,0,-14.9764475475
9,0.00442600205291606,0,2.40870112071429,41.8853907342857,19.4877246414286,0,0,0,-14.9740857428571
10,0.00449976818376598,0,2.37005434325,40.75823351125,19.4874813325,0,0,0,-14.97971707
11,0.00456869336249852,0,2.35869668214286,40.8319150428571,19.4877246414286,0,0,0,-14.9799185814286
12,0.00460357040089835,6.2986e-05,2.397090124625,41.02888882375,19.47942655625,0,0,0,-14.97977259375
13,0.00455864774146389,0.170469761285714,2.46947343914286,13.5119742561429,23.1950638314286,0,0,0,-14.9618846571429
14,0.00448819315020734,0.998592813625,18.170072667125,0.035713542375,110.67917264125,0,0,0,-14.70848026375
15,0.00441393542213933,3.80936684371429,20.3725734,0,162.127757785714,0,0,0,-13.7324222285714
16,0.00433898475149656,6.448869688,20.20288869125,0,70.427287,0,0,0,-11.36993566375
17,0.00426620679697776,8.70817184271429,22.9473770585714,0,-21.7535532894286,0,0,0,-8.003905024
18,0.00421519276839586,10.60831246075,26.74869697,0,-83.61997873125,0,0,0,-3.711761334375
19,0.00421885574946408,13.2637173985714,29.3041147985714,0,-76.0388458,0,0,0,1.59747428985714
20,0.00421095642047042,16.23902094,29.957572735,0,2.5708205895,0,0,0,8.25461479625
21,0.00415596413177213,18.9166420214286,30.3841276742857,0,25.8774809057143,0,0,0,16.1643191
22,0.00408696297058232,21.38083907875,30.16859085625,0,12.60451155425,0,0,0,25.2796715
23,0.00403592387089879,23.9458655942857,32.5005313428571,0,7.49184935485714,0,0,0,35.4824643342857
24,0.00404050000900846,26.48833539,24.876648175,0,6.458700112,0,0,0,46.94226458875
25,0.00403695518819184,27.2085622285714,20.1198766871429,0,3.45669046,0,0,0,59.1133158385714
26,0.00402513557966807,27.58750607,22.872688005,0,2.890624224375,0,0,0,71.47618435625
27,0.00402957200722101,28.2358297114286,22.2733625542857,0,1.67944155557143,0,0,0,84.0683096528571
28,0.00401524503902887,28.92127009625,20.58961677625,0,-0.002308014875,0,0,0,96.99205770875
29,0.00398550750159135,29.34454112,24.1854452542857,0,0.387597536142857,0.142857142857143,0.285714285714286,0,110.156016242857
30,0.00397318025422007,29.91080187625,17.80030759875,0,2.6298573675,1,2,0,123.5533178125
31,0.00397838335546615,30.0239833385714,14.8100207357143,0,1.50778542285714,1,2,0,137.102788085714
32,0.00402771647569582,29.937349575,14.81073424125,0,2.64402710875,1,2,0,150.6460074125
33,0.00409798752496979,29.8081293571429,11.90421327,0,2.99900012742857,1,2,0,164.144649185714
34,0.00417044417180273,29.6428248325,11.5770330725,0,2.992827095875,1,2,0,177.570059225
35,0.00423987812595185,29.4715477071429,13.5820063557143,0,0.0995172247142857,1,2,0,190.9262159
36,0.00428366636729134,29.35868081375,15.3299379375,0,2.60035595175,1,2,0,204.2100744875
37,0.00424796216454261,29.31477727,12.2929162485714,0,1.624677738,1,2,0,217.4680445
38,0.004179370469886,29.17625891375,11.10058131525,0,2.902154414125,1,2,0,230.6791539125
39,0.00410674202246939,28.9424081957143,10.0938625428571,0,1.49590960214286,1,2,0,243.818233757143
40,0.00403445859114967,28.66202495625,19.59126525,0,1.504914975,1,2,0,256.80955345
41,0.0039691749824618,28.7594636028571,15.8703351128571,0,2.697981943,1,2,0,269.779603385714
42,0.00394796654946181,28.76582704875,15.42423176875,0,3.010361633875,1,2,0,282.7730169125
43,0.00399091922684301,28.8217816028571,18.09920683,0,2.02110248342857,1,2,0,295.773851128571
44,0.00405690316549331,29.071465835,17.00484241,0,2.284346597,1,2,0,308.8451743125
45,0.00411451104563623,29.1728853314286,12.0337036304286,0,1.80380821228571,1,2,0,322.018113042857
46,0.00410617663821684,28.9677251725,8.418727917125,0,1.495674110875,1,2,0,335.158631975
47,0.00407471675821989,28.5625438057143,20.0187539114286,0,3.18641733528571,1,2,0,348.148434157143
48,0.00408153015878902,28.78794958,19.2923221775,0,2.261659445875,1,2,0,361.07961615
49,0.00411492590216581,29.1694600914286,17.6268457885714,0,2.88083036028571,1,2,0,374.183932542857
50,0.00414303530181507,29.30282180125,19.34708541,0,3.959821650375,1,2,0,387.3912812
51,0.00415106967373188,29.5121239285714,19.0460614828571,0,2.539540804,1,2,0,400.6708344
52,0.00414895424438096,29.65625301,18.93049656125,0,2.998655247375,1,2,0,414.036288125
53,0.00414148535251039,29.9754558828571,24.8980633585714,0,2.99674404571429,1,2,0,427.480634485714
54,0.00414197778563706,30.7968547025,22.69726010375,0,2.115738807125,1,2,0,441.2066872125
55,0.00414663122915828,31.5047632885714,24.16785485,0,1.030872853,1,2,0,455.286427285714
56,0.00415844133608344,32.1713070225,20.83039099,0,2.7667275965,1,2,0,469.6695945875
57,0.00418796105386116,32.3438366714286,14.25455733,0,3.58332785957143,1,2,0,484.269880957143
58,0.00421912911310053,32.27134782875,17.06715354375,0,2.06750227275,1,2,0,498.862497275
59,0.00420967516461448,32.4125033057143,23.4194652614286,0,1.49805273871429,1,2,0,513.454372942857
60,0.00414904634915514,32.86455021125,19.5592577,0,1.4990370255,1,2,0,528.199043625
61,0.00407668181122827,33.0745808728571,21.9445269585714,0,1.49902588814286,1,2,0,543.099418357143
62,0.0040030156431506,33.53127432375,22.93326037125,0,2.52171115325,1,2,0,558.124164975
63,0.00393166987374525,34.0843334742857,21.3797563428571,0,3.15992344185714,1,2,0,573.398262157143
64,0.00387999036906022,34.3783914075,13.266490932375,0,2.981811660125,1,2,0,588.8741264125
65,0.00387899953159647,34.2076846671429,10.2465226765714,0,2.51274142971429,1,2,0,604.391613014286
66,0.00390447079306577,33.93294024,19.08802103625,0,3.005989066125,1,2,0,619.7712578125
67,0.00394639480443401,33.9847922857143,19.3860591271429,0,0.980285853142857,1,2,0,635.109760785714
68,0.00401139283719884,34.14347805375,16.59601183625,0,1.502016218625,1,2,0,650.4954311
69,0.0040855771601643,34.1409984628571,18.6364363657143,0,1.56341556657143,1,2,0,665.931940185714
70,0.00416108902666132,34.32766100875,18.85379833375,0,3.012526507875,1,2,0,681.3779268625
71,0.0042361990734281,34.5825043871429,18.5309239542857,0,2.998416914,1,2,0,696.951702357143
72,0.00430907553445227,34.6593115825,16.94946991875,0,2.998074051,1,2,0,712.590066775
73,0.00437347034951178,34.6142259871429,16.2745131585714,0,2.99816083157143,1,2,0,728.246574914286
74,0.0043802013533741,34.5623262375,19.254506565,0,2.839691238625,1,2,0,743.8579386125
75,0.0043205224846443,34.6671756671429,15.8296221331429,0,1.73571430842857,1,2,0,759.4951916
76,0.00424831824331613,34.56329497,6.134866806375,0,2.99598756175,1,2,0,775.1432941
77,0.00417379385750786,33.9923138671429,5.52708519914286,0,2.75483285728571,1,2,0,790.652525428571
78,0.00409934865408942,33.24721281375,9.79687960475,0,1.488239057375,1,2,0,805.828580725
79,0.004028295864453,32.74901477,15.1421567385714,0,2.47431297728571,1,2,0,820.724181942857
80,0.00398641719830479,32.66498337625,13.67140672875,0,1.66222735275,1,2,0,835.490196975
81,0.00402016944781015,32.6308360342857,15.5703461285714,0,1.95858313442857,1,2,0,850.248170228571
82,0.00405812223695096,32.65462433875,15.464042255,0,1.054229040625,1,2,0,864.9829778875
83,0.00403357463652822,32.6370996128571,13.1644982428571,0,1.84334336271429,1,2,0,879.740178014286
84,0.00396707394562597,32.5056924975,11.935610055875,0,4.512933240625,1,2,0,894.4482762375
85,0.00389689445068573,32.3904796157143,21.1766993442857,0,3.11554220971429,1,2,0,909.104295414286
86,0.00384745545072811,32.76924533,25.60646992625,0,2.60289217,1,2,0,923.7879409
87,0.00385112293233955,33.6194210557143,24.5646412471429,0,4.50642424785714,1,2,0,938.784222885714
88,0.00385538210017198,34.1677844425,20.12161014125,0,3.4754882545,1,2,0,954.100977
89,0.00381426773770711,34.3869172285714,17.5697119714286,0,1.45776185214286,1,2,0,969.6048027
90,0.00375023112833859,34.35050147125,18.60140235125,0,2.3911943985,1,2,0,985.116329625
91,0.00371224753250054,34.4155882128571,20.6429637514286,0,2.92469086071429,1,2,0,1000.65174487143
92,0.00371822411314788,34.55275465875,12.74219853625,0,1.472267522375,1,2,0,1016.232862375
93,0.0037172075765446,34.3251434542857,10.2318776591429,0,2.87549546971429,1,2,0,1031.81196414286
94,0.00369217462421801,33.87411888875,13.485911452,0,2.134867687625,1,2,0,1047.212799875
95,0.00369517494134268,33.6193189085714,22.0012695442857,0,2.47776897771429,1,2,0,1062.45133114286
96,0.00374310605769367,33.9080256425,18.27431912375,0,1.485547694375,1,2,0,1077.689615125
97,0.00380727651496165,33.9031793128571,8.30171399757143,0,1.497649596,1,2,0,1093.03958028571
98,0.00387374836783725,33.4791112,6.149877956,0,2.08024167575,1,2,0,1108.253044125
99,0.00393614566609851,32.8501412157143,8.57560387814286,0,1.31348316471429,1,2,0,1123.26114785714
100,0.00396616498361043,32.26714917875,18.28816153375,0,1.50268866575,1,2,0,1137.931652125
101,0.00394792201751886,32.3276737057143,18.4996135171429,0,1.49973946042857,1,2,0,1152.51797614286
102,0.00389672973222364,32.3886201475,10.690363687,0,1.939242938125,1,2,0,1167.134555875
103,0.00386420817318169,32.09124259,11.0168470674286,0,3.00289812057143,1,2,0,1181.72019157143
104,0.0038797489443881,31.82345959,19.26175805,0,2.998074051,1,2,0,1196.128617375
105,0.00391925145802392,31.8834844314286,18.0233736385714,0,2.99816083157143,1,2,0,1210.52441157143
106,0.00394970278946175,31.94552767625,9.309514961375,0,2.83957690775,1,2,0,1224.93770775
107,0.00395655576298644,31.6620671157143,4.921733,0,1.49345719528571,0.285714285714286,0.571428571428571,0,1239.325558
108,0.00392519394337162,31.24583133625,4.029803705125,0,1.9391997585,0,0,0,1253.517571625
109,0.0038934153029141,30.8376854214286,3.90695210471429,0.000307269428571429,3.00256032642857,0,0,0,1267.55278285714
110,0.00389889872904428,30.37377799375,4.212745387,8.962844064375,2.98352294875,0,0,0,1281.372713125
111,0.00391373258199091,29.5887165928571,4.26645700185714,2.95031775714286,3.411665497,0,0,0,1294.93775814286
112,0.00392585802652102,29.04764790375,4.041586943625,3.228775538625,1.490569248625,0,0,0,1308.161919875
113,0.00397387381986672,27.9239752157143,4.08292407314286,21.2825054814286,-11.6536129838571,0,0,0,1321.10104771429
114,0.00404669166605716,25.71695708625,3.665848306,23.327256445,-15.4709755825,0,0,0,1333.1789775
115,0.00412335963061944,23.3213289071429,3.35215615114286,28.8382277885714,-14.6934912071429,0,0,0,1344.242026
116,0.00420109899762387,19.64632907625,3.273528656375,35.74808067375,-8.02933710525,0,0,0,1353.85665825
117,0.00427913730769733,14.9198514428571,2.98534151657143,36.7388907114286,44.68973442,0,0,0,1361.590212
118,0.00435707876373117,10.4536115985,2.909835764875,30.6452696375,189.58139615,0,0,0,1367.214626
119,0.00443455393244451,8.00658688928571,2.96022806371429,15.2400718947143,411.4545627,0,0,0,1371.27322957143
120,0.00451094404893848,7.0343856875,2.9462239725,0.3987081825,591.438862125,0,0,0,1373.8781905
121,0.00458501462287437,6.44356449071429,17.2551056457143,0.00202506228571429,625.162571242857,0,0,0,1374.64275842857
122,0.00465096956811546,6.87048217525,20.1806061825,0,589.036298425,0,0,0,1373.407774875
123,0.00466728294845071,8.77122379714286,26.7698982942857,0,370.333536042857,0,0,0,1370.474563
124,0.00460956639438504,11.76772692375,26.34860893625,0,95.489904275625,0,0,0,1365.949601
125,0.00453768765969626,14.5257931085714,29.6236229671429,0,7.42709682385714,0,0,0,1360.19915814286
126,0.00446264652967138,17.5768185675,29.3948079825,0,2.02805258675,0,0,0,1353.023171875
127,0.00438689211492227,20.5240328642857,29.7824386742857,0,-17.2619435022857,0,0,0,1344.51868371429
128,0.00431302079850499,23.2343397675,30.11987879625,0,-18.172445772375,0,0,0,1334.6210715
129,0.00425971340412132,25.9001997771429,30.12362567,0,-3.87962144128571,0,0,0,1323.55157071429
130,0.00423302720518972,27.69245580375,26.09370337625,0,-0.569904101625,0,0,0,1311.358624
131,0.00417081260084565,29.1104775885714,30.4870921571429,0,-1.38713341971429,0,0,0,1298.56094528571
132,0.00410273918332942,30.7099711725,25.3315961125,0,3.52647129425,0,0,0,1284.995439375
133,0.00403319135388259,31.7090796457143,24.1217001585714,0,4.51049456742857,0,0,0,1270.90115557143
134,0.00395940490248047,32.586773865,24.84801694375,0,3.35286287675,0,0,0,1256.350321125
135,0.00388926853414595,33.4803799,24.1333317857143,0,3.63962410928571,0.857142857142857,0.857142857142857,0,1241.45127557143
136,0.00384864306482161,34.4106709225,24.70629773875,0,5.79642086425,2,2,0,1226.0903605
137,0.00388634583099938,35.2000058,25.5960007128571,0,2.36462155557143,2,2,0,1210.38197328571
138,0.00395439686009469,36.026340495,21.66218412875,0,2.997143107625,2,2,0,1194.264462375
139,0.00402571738842763,36.5155302942857,19.2637494757143,0,4.04181314128571,2,2,0,1177.88617057143
140,0.0040922627473375,36.70013626375,20.19039071875,0,3.04215166425,2,2,0,1161.32571325
141,0.00411785399464822,36.9808229542857,24.9582204471429,0,1.90866636742857,2,2,0,1144.71861142857
142,0.00411520750468018,37.54805008875,15.841480072,0,3.152865412625,2,2,0,1127.85338725
143,0.00411160368510715,37.4121753914286,5.35774522328571,0,3.74875996328571,2,2,0,1110.91139271429
144,0.00409783832329094,36.99854819625,19.44645727625,0,4.576500630625,2,2,0,1094.096602
145,0.00411075391853111,37.0567252271429,21.4162262571429,0,1.350504302,2,2,0,1077.40461742857
146,0.00416721209883536,37.5307018925,21.09450816875,0,3.095254496,2,2,0,1060.535973125
147,0.00422628849468856,37.7493480642857,15.0695055571429,0,4.30436074728571,2,2,0,1043.52868128571
148,0.00424403655181464,37.724322545,18.9425432,0,3.328763227,2,2,0,1026.473142875
149,0.00423816945549056,37.6870856828571,5.43004274528571,0,4.12110058414286,2,2,0,1009.432146
150,0.00422970303374592,37.08136562875,4.84631796175,0,2.3143413485,2,2,0,992.5126110625
151,0.00419591696310425,36.31927417,18.1066007132857,0,2.98690770685714,2,2,0,975.951580242857
152,0.00412842830046995,36.35957812125,22.3342631875,0,3.42808454625,2,2,0,959.55596355
153,0.00405331095703961,36.86791273,22.6121257785714,0,3.23128323428571,2,2,0,943.029687242857
154,0.00397680192717876,37.1648231225,17.4981231625,0,4.9056613035,2,2,0,926.2779138375
155,0.00390035297309546,37.0732585585714,11.29277377,0,2.98559317728571,2,2,0,909.506237514286
156,0.00382552641966142,36.67254703875,8.5060462375,0,3.440117023375,2,2,0,892.8325412
157,0.00375946139895477,36.1019809142857,19.2731305617143,0,3.45682696714286,2,2,0,876.407367871429
158,0.00373884872209908,36.0954385,22.4438322525,0,2.9971109255,2,2,0,860.1190151375
159,0.00373257946253884,36.3168479042857,18.0242012814286,0,2.99706011657143,2,2,0,843.761746042857
160,0.00372561665647635,36.265226695,18.0621925075,0,3.707973457375,2,2,0,827.354832975
161,0.00372662871988698,36.1920017685714,19.1164654885714,0,3.23585637414286,2,2,0,811.002586357143
162,0.00374825270720457,36.22800271125,21.520991555,0,3.584742866625,2,2,0,794.637810475
163,0.00378608695611138,36.4273964728571,22.1600162557143,0,2.88516129557143,2,2,0,778.247499485714
164,0.00382841159802441,36.60270989625,17.11452889625,0,2.99846037775,2,2,0,761.7308575125
165,0.00386490709879938,36.5091818142857,15.81604488,0,3.00145851614286,2,2,0,745.220700485714
166,0.00389653154260472,36.32822879125,17.3385315125,0,3.832608488,2,2,0,728.7584474375
167,0.00391048376359265,36.1671159728571,16.3311898157143,0,3.00511934242857,2,2,0,712.3908584
168,0.00386666765365055,35.8590676525,9.694661047125,0.016745984375,2.99777848125,2,2,0,696.1045476875
169,0.00379686794361606,35.2450052728571,3.37993846042857,9.52359264685714,2.99811148314286,2,2,0,680.031783985714
170,0.0037234503629432,34.13723655,2.729759150625,5.0845890145,2.998188381875,2,2,0,664.3615094125
171,0.00365068732039127,33.20492682,4.36394952957143,0.0181609874285714,3.24105231571429,2,2,0,649.148894771429
172,0.00358444946788021,32.21327628875,12.952741478875,0,4.495182097875,2,2,0,634.3852767125
173,0.0035622232496281,31.8160773357143,10.7814305001429,0,4.497167225,2,2,0,619.946930485714
174,0.00361285270191238,31.36524012,13.82406593125,0,4.497111076875,2,2,0,605.6627931625
175,0.00368142620262333,31.0575387528571,21.2127518757143,0,4.50175752414286,2,2,0,591.584413157143
176,0.00374980295370329,31.27701528625,20.3229582575,0,3.4793854815,2,2,0,577.506725925
177,0.00379513244636222,31.6173273114286,18.4113623128571,0,1.80026972857143,2,2,0,563.303063928571
178,0.00379378022999465,31.546271555,17.0348921,0,1.658132423375,2,2,0,549.0159134125
179,0.00376845728966685,31.56562782,24.1890053042857,0,3.00439374885714,2,2,0,534.787113142857
180,0.00374554552305671,32.04948774,24.1405237175,0,2.99823156175,2,2,0,520.425586675
181,0.00373641189900516,32.5855696885714,19.8397639514286,0,3.24105231571429,2,2,0,505.823992071429
182,0.00374546684683246,32.7671878025,14.70266193,0,4.49508466375,2,2,0,491.0436624875
183,0.00377553376819113,32.60602527,14.5638708357143,0,3.20234254,2,2,0,476.276005371429
184,0.00377382700255788,32.43732076875,17.05981514125,0,5.512599609875,2,2,0,461.58207105
185,0.00375120570839043,32.3907495328571,15.9498344428571,0,5.99581270228571,2,2,0,446.9452131
186,0.00376692478533085,32.3155463275,19.7731093975,0,4.037575969625,2,2,0,432.327328425
187,0.0038180830895107,32.4415880642857,19.4434302714286,0,5.33964160314286,2,2,0,417.715990214286
188,0.00388194222715389,32.6754227875,19.253938095,0,2.996645199875,2,2,0,403.001541
189,0.00395633706287452,32.9074578957143,20.7437543185714,0,1.79805471357143,2,2,0,388.198118342857
190,0.00403356862890646,33.14892001375,19.0196906725,0,3.090155536875,2,2,0,373.271539025
191,0.00411125072302031,33.4121650714286,20.8514062814286,0,3.29575885285714,2,2,0,358.250755357143
192,0.00418875964757022,33.7030916775,19.89292436375,0,3.15712626925,2,2,0,343.091218275
193,0.00426553010565583,33.9356627514286,17.4712979314286,0,4.50445973642857,2,2,0,327.818818057143
194,0.00434042840914214,33.875165185,11.511002986875,0,4.02790589675,2,2,0,312.4805455125
195,0.004410167976211,33.4391622157143,8.04951853571429,0,1.49776212328571,2,2,0,297.264882342857
196,0.00444518978037674,32.765625115,16.715868114875,0,3.106817457125,2,2,0,282.3118698625
197,0.00440044140319799,32.6369047928571,18.5925715085714,0,4.40097794014286,2,2,0,267.565703114286
198,0.00433036507596664,32.816924605,18.14428927125,0,3.558854718125,2,2,0,252.7819304125
199,0.00425630383284423,33.0308623728571,18.0179566428571,0,2.99925047914286,2,2,0,237.910418328571
200,0.00418100480490866,33.12035040375,14.8507124575,0,2.998074051,2,2,0,222.9574268125
201,0.00410582038995698,33.0299667314286,15.0999441271429,0,2.99811148314286,2,2,0,208.016584942857
202,0.00403254513334386,32.92453994625,14.88223470125,0,2.998086622875,2,2,0,193.1132934125
203,0.0039684362295094,32.8117983471429,14.8137648028571,0,2.982223494,2,2,0,178.2678509
204,0.00396574086695416,32.67568020125,10.716543588,0,4.55203840575,2,2,0,163.46987425
205,0.00400498708436033,32.3471798771429,4.69348513771429,0,3.90258202142857,2,2,0,148.772948542857
206,0.00399632540386781,31.88723185,4.14204186175,0,2.36846687,2,2,0,134.259823
207,0.00398080738525058,31.4331951857143,3.892785695,0,3.95294522985714,1.42857142857143,1.42857142857143,0,119.965074242857
208,0.00398872858879189,30.9886249725,3.773271073875,0,5.4213424945,0,0,0,105.8627926825
209,0.00403490251360924,30.5452480557143,3.71241299414286,0.00267151985714286,3.91628656585714,0,0,0,91.96069545
