"Time","Perspiration","Speed","Acceleration","Braking","Steering","Phase","Activity","Failure","Distance"
0,0.00461733822090798,5.08571428571429e-06,2.95898259657143,0,-7.39074167857143,0,0,0,-10.37887842
1,0.00460708248616253,0.000163714,3.02098147128571,0,-7.49778621585714,0,0,0,-10.3786710957143
2,0.00464905154614451,0.002831748375,3.01163910125,0.10679827825,-7.495185127875,0,0,0,-10.37833419375
3,0.00468723921846247,0.00123400828571429,3.04886407942857,31.3487364238571,-7.49527870814286,0,0,0,-10.3784637714286
4,0.00470121263497562,4.45e-06,3.035075195875,47.85303579875,-7.495185127875,0,0,0,-10.37833419375
5,0.00471409077391483,0.000129655857142857,3.00901153057143,49.5365391028571,-7.49527870814286,0,0,0,-10.3784637714286
6,0.00476300117927806,0.00145638075,3.00875967925,49.55761450375,-7.458816286,0,0,0,-10.37833292125
7,0.00482588842804204,0.133056179571429,3.48762114985714,15.123345887,-49.3436890095714,0,0,0,-10.3676281671429
8,0.00488401520316558,0.895599732375,17.4746111115,0.003865920125,-219.9329096875,0,0,0,-10.160678173125
9,0.00492969137561792,2.846737483,10.6815689407143,0,-228.095719414286,0,0,0,-9.34115138214286
10,0.00498673790154061,3.790587199625,14.2955606625,0,-99.2504666,0,0,0,-7.847012405
11,0.00503028279513269,5.00495735471429,14.80126769,0,-7.67249762471429,0,0,0,-5.90268622057143
12,0.0050039069092494,6.30611248075,22.65285826625,0,89.12766859,0,0,0,-3.40995883375
13,0.00494339122196315,8.77642210742857,25.8019385342857,0,114.627234945714,0,0,0,-0.0629012514285714
14,0.00487722355396611,11.7456155475,29.01872014625,0,28.2199778725,0,0,0,4.597367638
15,0.0048092094157473,14.9552881128571,32.2315675028571,0,-15.3326326257143,0,0,0,10.5567868355714
16,0.00474022429651746,18.42244224375,30.45064175875,0,-11.12723125625,0,0,0,18.11282582
17,0.00467069751745324,21.2669147257143,31.9836743328571,0,-4.92718444285714,0,0,0,27.0661129814286
18,0.00460081148569747,24.050320515,29.1146509375,0,-4.89779902775,0,0,0,37.3316827625
19,0.00453070037685924,25.82553359,26.1954046171429,0,-1.384375149,0,0,0,48.6248861985714
20,0.00446043568460707,26.99858426875,22.3657763,0,1.00915348775,0,0,0,60.57764204125
21,0.00439008168892557,27.7715567042857,28.2502963571429,0,5.76696782614286,0,0,0,72.9371948971429
22,0.00431968327416429,29.1073322175,28.62108065375,0,3.50846230375,0,0,0,85.7691171975
23,0.00424928521402233,30.4321196471429,24.9843049485714,0,-0.00637649457142857,0,0,0,99.2333549542857
24,0.0041789338142802,31.43428624375,22.3849604225,0,2.305019325125,0.375,1.125,0,113.214616475
25,0.00410867865781742,32.0465865385714,17.7124742757143,0,0.0171340501428571,1,3,0,127.572268914286
26,0.00403859523398617,32.16203138125,6.23596892025,0,1.497465892125,1,3,0,142.093466175
27,0.00396877533363281,31.77016174,4.86400800871429,0,2.38346835142857,1,3,0,156.551218214286
28,0.00389940262317601,31.15986653875,9.457478917125,0,3.000960595875,1,3,0,170.76454025
29,0.00383076312794098,30.6681241385714,13.4433500822857,0,2.11369887385714,1,3,0,184.724115128571
30,0.00376362422422292,30.54856163,11.92133054,0,1.4980739,1,3,0,198.5460564375
31,0.00370013582643173,30.4302699685714,10.6898015481429,0,1.49905574157143,1,3,0,212.322061671429
32,0.00365849737797734,30.244618365,8.624221317125,0,1.4990370255,1,3,0,226.0309788875
33,0.00368619021105219,30.0023808128571,6.63389965157143,0,1.49905574157143,1,3,0,239.641964685714
34,0.00374441198291004,29.73973515625,4.70862316025,0,1.4990370255,1,3,0,253.130840375
35,0.00380597286205753,29.4353509328571,15.4804752587143,0,1.50017156985714,1,3,0,266.5107363
36,0.00386531357577772,29.439552165,19.0976705,0,3.08971202575,1,3,0,279.78084605
37,0.0039035223376375,29.8103127742857,18.17108458,0,2.89035605971429,1,3,0,293.1663016
38,0.00386985004294441,30.15716940375,18.51078284375,0,1.810650260375,1,3,0,306.71009805
39,0.00380896458752318,30.4253424428571,17.3697835028571,0,2.58573346485714,1,3,0,320.399380542857
40,0.00374401460382082,30.59860534875,18.243112265,0,0.637662601,1,3,0,334.1800952625
41,0.00367872331412986,30.8209173857143,17.4547809971429,0,0.465961108428571,1,3,0,348.054061271429
42,0.00361875521582142,31.06366648125,17.58812181125,0,3.010597529,1,3,0,362.0261417625
43,0.00356360359231408,31.24956337,14.7196872685714,0,2.998416914,1,3,0,376.113373014286
44,0.00351900600328256,31.33126439375,14.4751015725,0,2.998074051,1,3,0,390.252918425
45,0.00351475026248782,31.3681183,14.5192003357143,0,2.99811148314286,1,3,0,404.418146957143
46,0.0035544967778572,31.4332382475,15.51033008,0,2.992196101875,1,3,0,418.6006373875
47,0.00361627030935549,31.5527826642857,16.08634868,0,1.79952307628571,1,3,0,432.829710242857
48,0.00368286437931,31.68731898,19.07593099375,0,1.499647851375,1,3,0,447.1090105875
49,0.00375087920508761,31.9119100342857,18.7791229914286,0,1.48373967857143,1,3,0,461.467579285714
50,0.00381960407604192,32.204616805,18.33131723125,0,3.788401192125,1,3,0,475.94400045
51,0.0038886746187201,32.4712603785714,18.1008711785714,0,2.99366353614286,1,3,0,490.553696428571
52,0.00395789943412132,32.63865225,16.1139284375,0,2.998074051,1,3,0,505.259518875
53,0.00402711807242856,32.6794444071429,14.4183516871429,0,2.99811148314286,1,3,0,520.017416
54,0.00409616872366356,32.6572446775,16.23284754,0,2.998074051,1,3,0,534.7684741875
55,0.00416485909081031,32.7030779385714,18.4462237328571,0,2.99811148314286,1,3,0,549.531475242857
56,0.00423282862293737,32.9123716175,17.76800951625,0,2.998188381875,1,3,0,564.34450815
57,0.00429942990405769,33.1615269814286,17.5919383714286,0,3.40176660142857,1,3,0,579.277025485714
58,0.00436244068765482,33.34607331125,15.2875334825,0,4.500952354625,1,3,0,594.3017028875
59,0.00440816410793568,33.4000923685714,13.2650448157143,0,1.52250082485714,1,3,0,609.389287271429
60,0.00438348574243453,33.33164708625,11.2508313825,0,-0.00481279525,1,3,0,624.4610332625
61,0.00432457283522522,33.1651378728571,10.8174792671429,0,0.884412609714286,1,3,0,639.488687414286
62,0.00426030917630957,33.028499285,14.22964204375,0,1.500000151,1,3,0,654.42776555
63,0.00419493089912157,32.98578503,15.2858591,0,1.49905574157143,1,3,0,669.344107842857
64,0.00413053355254353,33.01500676625,18.21259636,0,1.4990370255,1,3,0,684.2379695
65,0.00407317781700587,33.2059849585714,16.1880566628571,0,1.49905574157143,1,3,0,699.193947385714
66,0.00406738488304779,33.32075870125,13.6598637925,0,1.49886556475,1,3,0,714.2203423
67,0.00410794375336611,33.3304725671429,14.6251208685714,0,1.51607422114286,1,3,0,729.280346842857
68,0.00410362696741194,33.36528867125,15.84851695625,0,0.05533304125,1,3,0,744.3374257125
69,0.00404979959788039,33.4252839914286,14.1693334971429,0,0.406204064428571,1,3,0,759.427472485714
70,0.00399850049075723,33.410480295,11.73708175,0,2.78301869925,1,3,0,774.5189848375
71,0.00396890181158002,33.3004764885714,11.0688069014286,0,2.99861298485714,1,3,0,789.594588085714
72,0.00394678625515706,33.1610712825,14.30815492875,0,2.998074051,1,3,0,804.59782805
73,0.00395421076617363,33.10163017,18.1346697457143,0,2.99811148314286,1,3,0,819.567589642857
74,0.00396957860053579,33.21049769,17.6915835125,0,2.999997470375,1,3,0,834.533122
75,0.00395792808857097,33.3472202171429,16.4091808471429,0,2.11369887385714,1,3,0,849.573621957143
76,0.00393132104013336,33.4128492825,15.49594211125,0,1.4980739,1,3,0,864.640811425
77,0.00389170660268147,33.4360377157143,15.3216044514286,0,1.49905574157143,1,3,0,879.747274257143
78,0.00383726760598452,33.41993906375,17.2999394725,0,1.4990370255,1,3,0,894.8339195875
79,0.00379712735831946,33.3937510071429,14.8264021014286,0,1.49905574157143,1,3,0,909.929072514286
80,0.00380018556288802,33.35990855,14.5702645575,0,1.4990370255,1,3,0,924.995397
81,0.00382018007451416,33.2912109085714,14.6317732814286,0,1.49905574157143,1,3,0,940.061097728571
82,0.00384088737953227,33.2185669525,14.31523679125,0,1.4990370255,1,3,0,955.0718887625
83,0.00384851870860073,33.1739775771429,14.0790095842857,0,1.49905574157143,1,3,0,970.074319971429
84,0.00385342198766571,33.1429796975,14.14160578375,0,1.4990370255,1,3,0,985.0390471875
85,0.00389112089605797,33.0983065271429,14.3034730357143,0,1.50127228457143,1,3,0,1000.01224607143
86,0.00394258584339758,33.0496224825,14.0421544575,0,2.361955543125,1,3,0,1014.94318775
87,0.00396158440580964,32.9956532385714,13.9348070428571,0,3.00016531757143,1,3,0,1029.87335342857
88,0.00393417683442023,32.9304335225,14.6923336675,0,2.998074051,1,3,0,1044.754489875
89,0.00388597735959413,32.8589298628571,14.5181964057143,0,3.00270178242857,1,3,0,1059.627191
90,0.00384349243619596,32.7575309675,14.3349696875,0,1.98622640525,1,3,0,1074.434227375
91,0.00381806993587435,32.6639026257143,14.4455154685714,0,1.49985174214286,1,3,0,1089.22219457143
92,0.00383410777994337,32.5743688175,14.10772171,0,1.4990370255,1,3,0,1103.94395625
93,0.00388813552385047,32.4745302842857,14.07100767,0,1.49905574157143,1,3,0,1118.652029
94,0.0039489843018216,32.36202096125,15.32691512875,0,1.4990370255,1,3,0,1133.282467875
95,0.003999370045825,32.2781249385714,16.3420272,0,1.49905574157143,1,3,0,1147.89693785714
96,0.00400211405720341,32.204489315,13.79920060925,0,1.498242238375,1,3,0,1162.44509625
97,0.00397500094834446,31.9477772414286,12.3300906775714,0,1.56341556657143,1,3,0,1176.96965414286
98,0.0039582390466814,31.66462189125,17.4919553875,0,3.012685397,1,3,0,1191.311252
99,0.00395147947991828,31.6477846014286,19.3637054885714,0,2.99603077914286,1,3,0,1205.61507685714
100,0.00394097391482396,31.81544159875,18.5619689775,0,1.7121633985,1,3,0,1219.930106625
101,0.00392143465659014,32.0467380385714,18.2326420671429,0,1.49855424,0.857142857142857,2.57142857142857,0,1234.36105528571
102,0.00389300041150726,32.190438735,16.9427119525,0,1.4992084865,0,0,0,1248.856706
103,0.00386818695838044,32.1393412528571,13.6539794871429,0,1.48203726214286,0,0,0,1263.40647428571
104,0.00387139123594408,31.9148313875,9.2092726905,0,2.942696451875,0,0,0,1277.864763125
105,0.00389448931586859,31.5029645628571,3.80451534485714,0,2.99929671185714,0,0,0,1292.21581028571
106,0.0039128055671458,30.8458235325,3.65578506625,3.62468522675,2.54446172025,0,0,0,1306.290263375
107,0.00391809656743297,29.7843061714286,3.71591031871429,20.2113494742857,-2.31658723885714,0,0,0,1320.03957285714
108,0.00392703904165342,27.4841311775,3.769007376,26.596073995,-9.6819732025,0,0,0,1332.974123125
109,0.00397071404551858,24.8367701114286,3.48713503728571,28.4284369671429,-23.17523514,0,0,0,1344.79008142857
110,0.0040351479457163,21.54206275125,3.305481216,33.1033640475,-23.99399777875,0,0,0,1355.16344
111,0.00410308332099757,17.7625205228571,2.87437332014286,33.13799969,-7.44255750414286,0,0,0,1363.882543
112,0.0041720881583133,14.45208960125,2.530923174,29.8558819325,34.840202885375,0,0,0,1370.90013275
113,0.00424153314117153,11.1537580791429,2.59645817757143,32.59980254,127.986186791429,0,0,0,1376.67790557143
114,0.00431117765968633,8.0810518785,2.6138740945,20.289230654875,328.29454185,0,0,0,1380.934870375
115,0.00438085865526699,7.17984113128571,4.90500091585714,0,484.905517328571,0,0,0,1384.02711957143
116,0.00445044381618886,6.90098793675,11.95396731125,0,496.203977225,0,0,0,1385.818362625
117,0.0045197960797267,6.69151923242857,19.1667904242857,0,496.211443357143,0,0,0,1386.13624642857
118,0.00458869633367993,7.5273830785,17.91342859875,0,472.5002349875,0,0,0,1384.79324525
119,0.00465682123338953,8.980189149,21.9517655671429,0,354.747952157143,0,0,0,1381.83601514286
120,0.00472334450423306,11.2735711325,25.3171935625,0,143.07031895125,0,0,0,1377.40262225
121,0.00478598888201455,13.81501176,25.4746998557143,0,39.6852873585714,0,0,0,1371.86402857143
122,0.00482547478868514,16.21174806625,24.88145971875,0,-2.9534295915,0,0,0,1365.14404675
123,0.00479478062451793,18.2306468142857,24.7825447142857,0,-11.9844612785714,0,0,0,1357.46327042857
124,0.0047344633033034,20.109145815,24.86709793875,0,-11.98138571375,0,0,0,1348.81808325
125,0.0046697437450243,21.8804595728571,23.7903707357143,0,-13.3635655114286,0,0,0,1339.37199971429
126,0.00460358342735636,23.21981462125,24.11917341,0,-9.48290881925,0,0,0,1329.150916625
127,0.0045371721000037,24.3163428942857,21.7059899614286,0,-1.95295214657143,0,0,0,1318.43148471429
128,0.00447152734884032,25.14600082625,23.59089288375,0,11.256889775625,0,0,0,1307.2324345
129,0.00440874049387684,26.1533894542857,22.7448238285714,0,7.23036404328571,0,0,0,1295.66495071429
130,0.00436445459550244,26.96283507875,22.48349823875,0,2.83510627275,0,0,0,1283.626869
131,0.00438294919238608,27.5882363971429,20.5856628585714,0,1.49277347628571,0,0,0,1271.32460314286
132,0.00442623690817344,28.26890040125,24.0517625825,0,1.498199058625,0,0,0,1258.6887305
133,0.00444858133347163,29.1961764071429,26.0599755428571,0,1.56341556657143,0,0,0,1245.74653814286
134,0.00449085069852308,29.97177605375,17.15625035,0,3.012526507875,2,3,0,1232.32694125
135,0.00455187430635911,30.0438907971429,19.9343023657143,0,2.999100633,2,3,0,1218.785902
136,0.0046130890489694,30.402508765,18.92195429875,0,3.438279963875,2,3,0,1205.11737225
137,0.00466108854642176,30.8168570142857,18.26014258,0,4.49973731942857,2,3,0,1191.304463
138,0.00464192715787024,31.23148727625,18.16435824125,0,3.634192559625,2,3,0,1177.27208075
139,0.00458367372045188,31.6782100828571,20.5516483471429,0,2.996057649,2,3,0,1163.08571871429
140,0.00451964514471013,32.1419567625,18.35012408625,0,2.998074051,2,3,0,1148.650668875
141,0.00445472211661708,32.4971163457143,18.2551325814286,0,2.99715058542857,2,3,0,1134.070389
142,0.00439129252034878,32.771515795,18.4675515975,0,3.308825267375,2,3,0,1119.307681875
143,0.00433648803486067,32.8606624728571,16.2323003185714,0,4.49162176528571,2,3,0,1104.489945
144,0.0043377716357614,32.81655292375,17.512107475,0,4.1866554305,2,3,0,1089.63496575
145,0.00438822532028139,32.8465192385714,17.1981431414286,0,3.00461784114286,2,3,0,1074.822379
146,0.00442851468044251,32.92208995625,17.6676932725,0,2.99777848125,2,3,0,1059.949276625
147,0.00446454494923739,33.0257510928571,17.0931041371429,0,2.99710123728571,2,3,0,1045.07215885714
148,0.00449941191908757,33.13719239625,17.50082632,0,3.467481300125,2,3,0,1030.1139175
149,0.00448864467651538,33.1877106185714,13.1318136208571,0,5.99144554471429,2,3,0,1015.14369142857
150,0.00445118170705486,32.93116348125,9.053352648125,0,3.97025164925,2,3,0,1000.1766860625
151,0.00442004238928545,32.4682740885714,18.68278496,0,1.48801397671429,2,3,0,985.432343642857
152,0.00440747890972992,32.46395167375,17.3089651425,0,3.65612714475,2,3,0,970.757725125
153,0.00441326106092398,32.6109153671429,16.8866758885714,0,4.49687272614286,2,3,0,956.0696969
154,0.00444404810201013,32.75313017875,17.36902555625,0,4.497111076875,2,3,0,941.284315625
155,0.00448928605629405,32.8170624571429,15.6509232014286,0,4.50175752414286,2,3,0,926.480264928571
156,0.00449759659102172,32.75451837625,13.70099717125,0,3.48526343075,2,3,0,911.650066375
157,0.00449922063387347,32.6112645385714,14.9896291071429,0,2.99890748371429,2,3,0,896.892741842857
158,0.00451888703004186,32.51081081875,13.8479128725,0,2.998074051,2,3,0,882.1677089875
159,0.00453709975826536,32.4114644628571,14.8934716828571,0,2.99811148314286,2,3,0,867.510409985714
160,0.00453696731269507,32.3672816725,17.49680526625,0,2.998074051,2,3,0,852.8642823375
161,0.00451008894164215,32.3118129428571,18.7250523957143,0,2.99811148314286,2,3,0,838.2674746
162,0.00446824402260394,32.32848571125,20.00459038875,0,2.997915161875,2,3,0,823.6585602375
163,0.0044298189765074,32.5391053414286,19.5161521,0,3.00049761842857,2,3,0,809.025809814286
164,0.00441368297616993,32.78694891,18.260800895,0,4.14313104225,2,3,0,794.2596835375
165,0.0044111945384205,32.9781538,18.3464854542857,0,3.85107277657143,2,3,0,779.414365514286
166,0.00441082000304043,33.04586660375,16.847550205,0,1.501085895625,2,3,0,764.4865399125
167,0.00440132971145005,33.0259765357143,17.1286168985714,0,2.78712346885714,2,3,0,749.5720296
168,0.00439893677399445,32.90284250375,14.69240897125,0,4.496145223375,2,3,0,734.6673672375
169,0.00440920413553659,32.7494996485714,17.2155994014286,0,4.49755436742857,2,3,0,719.845268442857
170,0.00442267725427294,32.66610883125,19.22519279875,0,4.492023010625,2,3,0,705.065255575
171,0.00440779433505092,32.8010919042857,19.5521153057143,0,1.595849037,2,3,0,690.293224257143
172,0.00435907042250325,32.95446463375,17.00367356375,0,2.941812486375,2,3,0,675.41570855
173,0.00429993658240109,32.9389434557143,18.4973563185714,0,2.99794867157143,2,3,0,660.545726142857
174,0.00425494230414777,33.05517382,18.2655528425,0,2.997915161875,2,3,0,645.6293090875
175,0.00426421138534244,33.1968906771429,17.7293455714286,0,2.99590731971429,2,3,0,630.672585228571
176,0.00431404053064594,33.3175628225,17.6499409125,0,5.28813024575,2,3,0,615.6370168375
177,0.0043729362367155,33.44974978,17.0639874028571,0,4.07448606314286,2,3,0,600.562178185714
178,0.00442393281954516,33.5733091775,17.4223695175,0,3.00061178025,2,3,0,585.410443675
179,0.00444051768269394,33.6897790742857,17.6917557385714,0,2.99811148314286,2,3,0,570.219366714286
180,0.00443641390685436,33.768278245,16.80964984,0,2.999997470375,2,3,0,554.97144175
181,0.00442745559825751,33.82404751,16.1659431528571,0,2.11177707842857,2,3,0,539.711774771429
182,0.00441811681206768,33.8783966275,16.34501168125,0,2.11957633275,2,3,0,524.4096801
183,0.00440508717615915,33.9087011757143,17.9672879671429,0,4.48193796671429,2,3,0,509.104577142857
184,0.00438443137236776,33.89882022125,18.21785243625,0,3.634942588375,2,3,0,493.777336775
185,0.00434837121578119,33.8854032628571,17.1812845542857,0,2.99362216585714,2,3,0,478.471053314286
186,0.00432871880100613,33.8504165075,16.61629426,0,1.870660542125,2,3,0,463.1608033125
187,0.00433517813986928,33.8298566371429,16.9687517371429,0,3.00389224728571,2,3,0,447.877462442857
188,0.00432710849114323,33.7223365675,14.62606122,0,2.998117230875,2,3,0,432.6067715
189,0.00429107722645569,33.5787603028571,14.1248062742857,0,2.99811148314286,2,3,0,417.402638042857
190,0.00425189698355641,33.42188316,14.91596064375,0,2.998074051,2,3,0,402.257814
191,0.00421362954644395,33.2474348785714,15.0567540857143,0,2.99851802314286,2,3,0,387.193300071429
192,0.00419473719110972,33.0396617675,16.45473026375,0,4.1833591435,2,3,0,372.2163996625
193,0.00421413991749611,32.8998639528571,18.5758268085714,0,6.304347517,2,3,0,357.327997171429
194,0.00425301714746963,32.795491245,17.642297955,0,4.98519428025,2,3,0,342.48195945
195,0.00428578533849787,32.7013913671429,18.4071776928571,0,4.49796322557143,2,3,0,327.693093757143
196,0.00428982742377619,32.63127054625,18.33707266875,0,4.498984115375,2,3,0,312.9406991625
197,0.00426460868177199,32.6571121657143,18.1374168685714,0,3.93744274685714,2,3,0,298.200545171429
198,0.00425449840575728,32.7322663225,18.24608573,0,2.994057539625,2,3,0,283.426440325
199,0.0042702086757522,32.85389163,18.5233903457143,0,2.99811148314286,2,3,0,268.6159265
200,0.00429407375926883,32.98752133125,18.20049496375,0,2.997279264,2,3,0,253.742105425
201,0.00432292808593824,33.0911239085714,17.08850497,0,3.06247130842857,2,3,0,238.817353142857
202,0.00432358597809717,33.11068567625,16.47639849875,0,4.5115635335,2,3,0,223.849847125
203,0.00430619973714225,33.0108996171429,14.6930620514286,0,4.49747265585714,2,3,0,208.915336085714
204,0.00429616871801925,32.88615114375,14.3172327175,0,4.496996746,2,3,0,194.0233401625
205,0.00430826470801021,32.7542270757143,13.6574461542857,0,4.09351210728571,2,3,0,179.1968556
206,0.00429463167783971,32.61567541,16.90096305125,0,3.00000303025,2,3,0,164.4274378375
207,0.00424112941007946,32.5643988757143,20.0272231957143,0,2.99811148314286,2,3,0,149.709928885714
208,0.00417851467991277,32.7723677075,21.45384293625,0,2.998074051,2,3,0,134.9541184625
209,0.00411862929199962,33.1067466428571,19.3322351157143,0,2.99811148314286,1.42857142857143,2.14285714285714,0,120.076877128571
210,0.00407618284970088,33.31327407,16.881849882875,0,2.998074051,0,0,0,105.06974389375
