"Time","Perspiration","Speed","Acceleration","Braking","Steering","Phase","Activity","Failure","Distance"
0,0.00684119114285714,0.00879772614285714,3.25821765471429,33.0861549928571,9.38394640128571,0,0,0,-17.5276251871429
1,0.00665692028571429,0.383358685428571,6.15076366585714,0.097294403,83.6492510142857,0,0,0,-17.3038194814286
2,0.006341283875,1.474719418875,16.373313805,0.00143569575,188.43562575,0,0,0,-16.90477046875
3,0.00592195671428571,3.46393971071429,17.3019677428571,0,156.537325885714,0,0,0,-15.8057690842857
4,0.00554523525,5.229534616625,19.6165585075,0,70.0351074675,0,0,0,-13.8606726625
5,0.00518787471428571,7.02764768714286,20.5440052828571,0,0.0190566102857142,0,0,0,-11.179415485
6,0.004864749875,8.618762249125,25.08173408625,0,-37.1954917925,0,0,0,-7.72335457525
7,0.00470676414285714,10.3644917737143,25.5871630057143,0,-69.6208458542857,0,0,0,-3.535296336
8,0.004644523375,12.23694655625,24.99801408625,0,-77.1656547825,0,0,0,1.561415911375
9,0.00462475042857143,13.9348750314286,25.0896966128571,0,-30.7111365271429,0,0,0,7.451302547
10,0.00463414,15.47456477625,25.80707751375,0,5.227163189125,0,0,0,14.09065323
11,0.00461935485714286,16.9395293528571,25.3333173114286,0,27.3951086757143,0,0,0,21.4008238657143
12,0.004619271875,18.34596838125,26.22582514,0,23.3027988775,0,0,0,29.36465549
13,0.00468190385714286,19.7380418428571,26.3799486314286,0,6.693271322,0,0,0,37.9496021557143
14,0.004748201,21.16643823375,26.35479832,0,2.996909107625,0,0,0,47.1891867825
15,0.00473091942857143,22.5220180628571,26.3015701328571,0,2.99742776442857,0,0,0,57.0381453085714
16,0.004646464,23.8207330075,24.2542427925,0,2.557868138875,0,0,0,67.52113734
17,0.00457899114285714,24.9541242071429,29.07712787,0,1.49648564742857,0,0,0,78.5285064671429
18,0.00454975625,26.5575241175,28.92499665625,0,2.363878961875,0,0,0,90.1540907825
19,0.004527676,27.7543588871429,18.4297419371429,0,1.95503842228571,0,0,0,102.465517305714
20,0.004490031375,27.96601309375,23.52680171,0,1.4980739,0.5,0.5,0,115.05182305
21,0.00444780314285714,28.5313898114286,23.8862569271429,0,1.49905574157143,1,1,0,127.796957385714
22,0.004397257125,29.30941929625,22.64318156125,0,1.4990370255,1,1,0,140.8617051375
23,0.00436493485714286,29.8047351857143,10.7601446557143,0,1.49905574157143,1,1,0,154.240753857143
24,0.004376244625,29.51835973625,15.97208747875,0,1.49886556475,1,1,0,167.6385989125
25,0.00440950385714286,29.4181987314286,14.8770800642857,0,1.51607422114286,1,1,0,180.945118957143
26,0.004432501375,29.28815198125,17.285461065,0,0.055377599375,1,1,0,194.2021783625
27,0.00443845785714286,29.2613662185714,18.8551444285714,0,-0.000798086142857143,1,1,0,207.418252857143
28,0.00447638275,29.40931286625,19.2298712675,0,0.31075121625,1,1,0,220.665572675
29,0.004563415,29.6515163857143,19.1208048114286,0,1.49254938385714,1,1,0,234.005422942857
30,0.00457952475,29.8478888075,18.46644372875,0,1.499332595375,1,1,0,247.4464807625
31,0.00451151657142857,29.9658018257143,18.3194136714286,0,1.49905574157143,1,1,0,260.956857685714
32,0.004459379375,30.08741255875,19.1892558475,0,1.4990370255,1,1,0,274.5126389
33,0.00444779214285714,30.2425075742857,19.2227466885714,0,1.49905574157143,1,1,0,288.131996485714
34,0.004431051625,30.40039387875,17.83698461,0,1.4990370255,1,1,0,301.827707425
35,0.00437890857142857,30.5765900342857,16.1671567197143,0,1.49905574157143,1,1,0,315.599931285714
36,0.0043155405,30.3040523925,6.262962452,0,1.498242238375,1,1,0,329.3774657125
37,0.004288318,29.4554010242857,11.2584901698571,0,1.56451628142857,1,1,0,342.889309357143
38,0.004318014,28.85188891875,12.88186046375,0,2.425494289125,1,1,0,356.0317499875
39,0.00436249614285714,28.60071285,14.5167059442857,0,1.49999866685714,1,1,0,369.011577842857
40,0.0043876665,28.46957943875,15.68027886625,0,1.4990370255,1,1,0,381.8913079875
41,0.00436800285714286,28.3367294657143,15.0531710814286,0,1.49905574157143,1,1,0,394.727899228571
42,0.0043442365,28.21842972,15.15037570625,0,1.4990370255,1,1,0,407.4961056625
43,0.00432843557142857,28.1237153642857,13.8757743171429,0,1.49905574157143,1,1,0,420.225204142857
44,0.00429382375,28.04615834875,14.96072926125,0,1.4990370255,1,1,0,432.9086626
45,0.00424555671428571,27.9954642385714,16.2526899614286,0,1.49905574157143,1,1,0,445.567511342857
46,0.004237873125,28.00504472625,16.028639015,0,1.4990370255,1,1,0,458.2109056625
47,0.00427465471428571,28.0254619,15.4124855271429,0,1.49905574157143,1,1,0,470.869592842857
48,0.004307966875,28.02431563875,19.489587245,0,1.4990370255,1,1,0,483.5219164
49,0.00435521571428571,28.18376922,19.0674671028571,0,1.49905574157143,1,1,0,496.213089828571
50,0.0044421195,28.42959059375,18.78723311,0,1.4990370255,1,1,0,508.9917467625
51,0.00451781871428571,28.6805591928571,18.9418209885714,0,1.49905574157143,1,1,0,521.893184457143
52,0.004515714375,28.930778175,18.4588794425,0,1.4990370255,1,1,0,534.9041723375
53,0.00443253085714286,29.1778032714286,18.3959112242857,0,1.49905574157143,1,1,0,548.030704857143
54,0.0043194655,29.35594146625,17.9593928825,0,1.4990370255,1,1,0,561.2509375875
55,0.00424408557142857,29.4231613714286,18.9038767914286,0,1.49905574157143,1,1,0,574.535542914286
56,0.004200646625,29.410008295,16.6780608975,0,1.4990370255,1,1,0,587.8206797875
57,0.004153977,29.3559232285714,18.0628794571429,0,1.49905574157143,1,1,0,601.098522514286
58,0.0041306745,29.30360772625,16.117829245,0,1.4990370255,1,1,0,614.3430548
59,0.00414512771428571,29.24444009,19.7984362628571,0,1.49905574157143,1,1,0,627.569771
60,0.004187426625,29.24483243375,18.28842787375,0,1.4990370255,1,1,0,640.7740809625
61,0.00423959457142857,29.2697863157143,17.8419096185714,0,1.49905574157143,1,1,0,653.993584028571
62,0.00427066625,29.32762514875,18.3886343225,0,1.4990370255,1,1,0,667.2179695375
63,0.00424938342857143,29.4705689814286,19.2884257242857,0,1.49905574157143,1,1,0,680.507910571429
64,0.004239709,29.6392897875,18.98177246875,0,1.4990370255,1,1,0,693.8435293625
65,0.00427167285714286,29.8259309157143,19.0220353814286,0,1.49905574157143,1,1,0,707.282188357143
66,0.004295688125,29.96750277125,15.432934033375,0,1.4990370255,1,1,0,720.77942855
67,0.00428963485714286,29.7730001428571,15.0182450371429,0,1.49905574157143,1,1,0,734.300489471429
68,0.0042950005,29.53199002,15.98409905375,0,1.4990370255,1,1,0,747.67842455
69,0.00432822714285714,29.4341870928571,15.0519654385714,0,1.49905574157143,1,1,0,760.999832228571
70,0.00440889475,29.35998005875,14.79563838,0,1.4990370255,1,1,0,774.2683042625
71,0.004513488,29.2830814985714,17.0021434714286,0,1.49905574157143,1,1,0,787.5189656
72,0.00457890575,29.2700544725,18.36999087625,0,1.4990370255,1,1,0,800.731237825
73,0.00456663042857143,29.3208298071429,18.07090321,0,1.49905574157143,1,1,0,813.968000514286
74,0.004508526625,29.43005931375,17.15673087375,0,1.4990370255,1,1,0,827.2303551125
75,0.00446000285714286,29.5624066357143,17.0249890214286,0,1.49905574157143,1,1,0,840.565079571429
76,0.0044088575,29.67709876375,17.0614534425,0,1.4990370255,1,1,0,853.938746625
77,0.004348412,29.7827986285714,16.55396821,0,1.49905574157143,1,1,0,867.374948171429
78,0.00431178575,29.89994472375,16.43993316875,0,1.4990370255,1,1,0,880.846278525
79,0.00431346485714286,29.9076265128571,13.1377003571429,0,1.49905574157143,1,1,0,894.370257971429
80,0.0043174485,29.59469483125,13.94769529125,0,1.4990370255,1,1,0,907.8017735375
81,0.00432463471428571,29.2980411085714,16.88115978,0,1.49905574157143,1,1,0,921.112822157143
82,0.004369294,29.1315166325,18.89674185375,0,1.4990370255,1,1,0,934.2953877625
83,0.00440210614285714,29.0486173785714,18.6230880028571,0,1.49905574157143,1,1,0,947.440681428571
84,0.004380974125,29.02801100375,19.30878198125,0,1.4990370255,1,1,0,960.5458859375
85,0.00437484228571429,29.03561481,18.9086257057143,0,1.49905574157143,1,1,0,973.668075957143
86,0.004418638875,29.09471078625,18.6835906125,0,1.4990370255,1,1,0,986.78369455
87,0.00446809114285714,29.17315997,19.1249746142857,0,1.49905574157143,1,1,0,999.955330314286
88,0.004463098625,29.28651791,19.4737374625,0,1.4990370255,1,1,0,1013.144595625
89,0.00440875671428571,29.4845479885714,18.7166705971429,0,1.49905574157143,1,1,0,1026.42611857143
90,0.00434718975,29.72463077875,19.040843925,0,1.4990370255,1,1,0,1039.78732025
91,0.00431386842857143,29.8716803885714,19.6577748385714,0,1.49905574157143,1,1,0,1053.25891685714
92,0.00430299575,29.9750127625,19.30195132375,0,1.4990370255,1,1,0,1066.759646125
93,0.00427142685714286,30.1904980942857,18.3456589342857,0,1.49905574157143,1,1,0,1080.35638371429
94,0.004229295375,30.41832748875,18.2545653575,0,1.4990370255,1,1,0,1094.033398875
95,0.00418158885714286,30.6236928071429,18.62625762,0,1.49905574157143,1,1,0,1107.83487742857
96,0.004125290625,30.692127145,17.3883481925,0,1.4990370255,1,1,0,1121.676220625
97,0.00409679671428571,30.65162871,14.1891520335714,0,1.49905574157143,1,1,0,1135.54787185714
98,0.004085261125,30.20997614,10.41723535575,0,1.4990370255,1,1,0,1149.302116375
99,0.00407389585714286,29.67621473,14.84730817,0,1.49905574157143,1,1,0,1162.82535257143
100,0.004121797625,29.37382673875,16.15444524625,0,1.4990370255,1,1,0,1176.146845
101,0.004194873,29.1985628385714,14.8180693714286,0,1.49905574157143,1,1,0,1189.38561914286
102,0.004247485625,29.066812205,14.9637642825,0,1.4990370255,1,1,0,1202.529894375
103,0.00429906128571429,28.9409841014286,14.8947869914286,0,1.49905574157143,1,1,0,1215.64703085714
104,0.0043299085,28.7683637525,14.75256574525,0,1.4990370255,1,1,0,1228.666161125
105,0.00430763942857143,28.3634884285714,5.21509653385714,0,1.49905574157143,0.142857142857143,0.142857142857143,0,1241.60493328571
106,0.004283084,27.46375559125,10.108946775,0,1.4990370255,0,0,0,1254.203413625
107,0.00427051371428571,26.7037970042857,12.2377292285714,0,1.49905574157143,0,0,0,1266.43558757143
108,0.004232007125,26.28918631375,6.443884209875,0.005147647625,1.4990370255,0,0,0,1278.394145375
109,0.00420615442857143,25.7823467314286,4.91776774828571,2.85579363957143,1.49905574157143,0,0,0,1290.175804
110,0.004242713,24.39430071125,5.116370246875,18.60600436375,1.499990701875,0,0,0,1301.542074625
111,0.00428846214285714,22.4842348771429,4.61433187557143,14.9467058857143,1.44043453457143,0,0,0,1312.124818
112,0.004297092125,21.17384246,4.490034828,17.9700721975,-6.457444165875,0,0,0,1321.95722025
113,0.00428723257142857,19.1672827742857,4.58011685085714,22.6096171414286,-39.6523956685714,0,0,0,1331.12173028571
114,0.004353181875,17.04001566125,4.489750899375,19.5022690075,-58.7573806525,0,0,0,1339.171250625
115,0.00449632071428571,15.3791310214286,4.41104306171429,22.0516511542857,-14.0383845382857,0,0,0,1346.283609
116,0.004625074,12.765280295,4.691084872875,26.328310365,104.06161964625,0,0,0,1352.377559875
117,0.00470543171428571,9.93272523142857,4.34217391728571,21.3915014114286,284.725387442857,0,0,0,1357.44334814286
118,0.004779296875,8.828773310625,3.979331660875,6.560676960625,460.287157525,0,0,0,1361.384541875
119,0.00493525871428571,8.53179965142857,11.5073002364286,0.0188171784285714,521.766908757143,0,0,0,1363.85949914286
120,0.005205007625,8.462433174375,20.1385112375,0,526.1616183,0,0,0,1363.87484775
121,0.005467463,9.29662678842857,21.6746142671429,0,489.714922471429,0,0,0,1361.55008028571
122,0.005485054625,11.17418491,24.56340922375,0,287.564786125,0,0,0,1357.225658375
123,0.00527450242857143,12.9856898842857,24.2775894857143,0,44.3533343661429,0,0,0,1352.092549
124,0.00493966325,14.42136321875,23.88561771125,0,-44.75249267125,0,0,0,1346.306884
125,0.00459843842857143,15.8333485742857,26.6484582371429,0,-64.3979796857143,0,0,0,1339.73473585714
126,0.0043753205,17.55775774625,25.56146282375,0,-31.69069974,0,0,0,1332.21664
127,0.00431745428571429,19.3596092414286,26.8923379828571,0,-1.98995854285714,0,0,0,1323.88828414286
128,0.004402304375,21.17937290875,26.1996500225,0,4.126285067125,0,0,0,1314.686564875
129,0.004484546,22.7777631314286,24.4532592242857,0,2.99685364942857,0,0,0,1304.74800528571
130,0.004488600375,24.23979421375,26.0053443475,0,2.998074051,0,0,0,1294.090201
131,0.00446131585714286,25.8566435885714,28.6603863585714,0,2.99811148314286,0,0,0,1282.79511957143
132,0.004441225875,27.6402307175,27.8248328725,0,2.998074051,0,0,0,1270.677554875
133,0.00440681014285714,28.8419163757143,9.81679116285714,0,2.99811148314286,0,0,0,1257.87958628571
134,0.004397476625,28.546823165,15.060097326375,0,2.998074051,0.25,0.125,0,1244.88781775
135,0.00439116514285714,28.5016523028571,19.4945006485714,0,2.99811148314286,2,1,0,1232.04862857143
136,0.004343272375,28.90612849875,19.6810222925,0,3.0039520005,2,1,0,1219.074914375
137,0.00430059157142857,29.4404467042857,20.7046555171429,0,4.19703768457143,2,1,0,1205.92056957143
138,0.00432561625,29.8524980675,9.065274457125,0,4.507301284,2,1,0,1192.486436875
139,0.00440376357142857,29.3690348314286,10.1266221125714,0,2.39425081085714,2,1,0,1179.091281
140,0.0044702645,28.89747204875,15.97954672625,0,2.227792934,2,1,0,1165.9446315
141,0.00446733028571429,28.85639691,15.93645643,0,2.997473989,2,1,0,1152.921728
142,0.00440217675,28.94068264125,17.773607415,0,2.998074051,2,1,0,1139.852231125
143,0.00434568785714286,29.0441847085714,17.9593988057143,0,2.99811148314286,2,1,0,1126.77210485714
144,0.00433504575,29.1321737475,17.959978645,0,2.998074051,2,1,0,1113.61574925
145,0.00435337371428571,29.2284570128571,18.1802719157143,0,2.99811148314286,2,1,0,1100.44922585714
146,0.00437138425,29.32457296625,18.23933217125,0,2.998074051,2,1,0,1087.21115775
147,0.00436331071428571,29.42640922,19.1025254428571,0,2.99811148314286,2,1,0,1073.96157014286
148,0.00432642625,29.608610405,18.0645981175,0,2.998074051,2,1,0,1060.61237175
149,0.004311365,29.8651578885714,18.3770173642857,0,2.99811148314286,2,1,0,1047.20203385714
150,0.0043197355,30.157057645,15.038721853,0,2.998074051,2,1,0,1033.628853875
151,0.00431706528571429,30.02204724,10.5628797375714,0,2.99811148314286,2,1,0,1020.02329928571
152,0.004300550125,29.70673280875,13.72436436,0,2.998074051,2,1,0,1006.53631175
153,0.00430451514285714,29.5334082528571,10.2753977648571,0,2.99811148314286,2,1,0,993.166032585714
154,0.004343279375,29.18422843625,6.791934983875,0,2.998074051,2,1,0,979.88329335
155,0.00441335628571429,28.4973698942857,11.572418456,0,2.99811148314286,2,1,0,966.853128242857
156,0.004494213375,28.07975246875,14.8978666325,0,2.998074051,2,1,0,954.08777175
157,0.00453227014285714,28.0154412685714,14.9589628971429,0,2.99811148314286,2,1,0,941.432919585714
158,0.0045439595,27.9746270125,14.92520226,0,2.998074051,2,1,0,928.7712355125
159,0.00456835828571429,27.9504206585714,16.9642139257143,0,2.99811148314286,2,1,0,916.152566528571
160,0.00462794775,28.0523888875,17.4922365875,0,2.998074051,2,1,0,903.4949249875
161,0.00473494114285714,28.2116657557143,17.2521175371429,0,2.99811148314286,2,1,0,890.798777271429
162,0.004820205625,28.364422345,17.44356222625,0,2.998074051,2,1,0,878.0112478
163,0.00483061928571429,28.5379137785714,17.9518242642857,0,2.99811148314286,2,1,0,865.175763157143
164,0.0047865735,28.7609550725,17.1400949275,0,2.998074051,2,1,0,852.2203893625
165,0.00471502014285714,28.9388831385714,18.4787494728571,0,2.99811148314286,2,1,0,839.2008332
166,0.0046034725,29.0880401575,18.24960789,0,2.998074051,2,1,0,826.0830726
167,0.004532112,29.2566390185714,18.1135614557143,0,2.99811148314286,2,1,0,812.920253928571
168,0.0045451255,29.39864898625,17.82812825,0,2.998074051,2,1,0,799.6578131
169,0.00452258785714286,29.5150712857143,17.43658353,0,2.99811148314286,2,1,0,786.367705942857
170,0.004412303375,29.48205870875,14.94140668125,0,2.998074051,2,1,0,773.0205167375
171,0.00430348957142857,29.3620616171429,17.0092581171429,0,2.99811148314286,2,1,0,759.748629171429
172,0.004285228375,29.36413836625,18.6061929575,0,2.998074051,2,1,0,746.475054375
173,0.00429523385714286,29.4279929785714,19.1298531285714,0,2.99811148314286,2,1,0,733.206451942857
174,0.004287081875,29.56390908875,19.49398061375,0,2.998074051,2,1,0,719.873309625
175,0.00430163271428571,29.7441302971429,17.5772180114286,0,2.99811148314286,2,1,0,706.490239142857
176,0.004355035875,29.9336470975,17.07223437375,0,2.998074051,2,1,0,693.000198625
177,0.00438060128571429,29.96737067,14.7761935542857,0,2.99811148314286,2,1,0,679.4724783
178,0.00435333925,29.78606761875,11.33226634625,0,2.998074051,2,1,0,665.9622604875
179,0.00436281557142857,29.49927995,14.1857950142857,0,2.99811148314286,2,1,0,652.577566157143
180,0.004392163125,29.27574216375,15.1614308,0,2.998074051,2,1,0,639.2950243125
181,0.00437120414285714,29.1425316271429,16.3363874585714,0,2.99811148314286,2,1,0,626.113912614286
182,0.004329879625,29.10440404,17.7626643475,0,2.998074051,2,1,0,612.9533994625
183,0.00431168942857143,29.1257367014286,19.5557108528571,0,2.99811148314286,2,1,0,599.814158828571
184,0.00435376675,29.194621405,17.8732904575,0,2.998074051,2,1,0,586.6375282875
185,0.00443231228571429,29.3317380342857,17.1238923114286,0,2.99811148314286,2,1,0,573.428727014286
186,0.004485838,29.4648794125,16.68277655625,0,2.998074051,2,1,0,560.1395153125
187,0.00448974685714286,29.5791935928571,16.3225944257143,0,2.99811148314286,2,1,0,546.811428957143
188,0.004462301875,29.7082478925,16.0688669925,0,2.998074051,2,1,0,533.4108944
189,0.00441815014285714,29.80444257,13.14065633,0,2.99811148314286,2,1,0,519.973183114286
190,0.004411087375,29.45655161,11.56420335125,0,2.998074051,2,1,0,506.563379975
191,0.00446233385714286,28.99493996,6.719782492,0,2.99811148314286,2,1,0,493.373942871429
192,0.0045507915,28.44169309375,8.460358586875,0,2.998074051,2,1,0,480.3846831125
193,0.00462603185714286,27.7109164485714,11.9381765971429,0,2.99811148314286,2,1,0,467.711002257143
194,0.004651419,27.3844873425,14.4794412525,0,2.998074051,2,1,0,455.2777339
195,0.00467227428571429,27.2382685042857,17.7838094971429,0,2.99811148314286,2,1,0,442.956230142857
196,0.004729389625,27.3054586,19.2249634675,0,2.998074051,2,1,0,430.6435266625
197,0.00479264028571429,27.4895341957143,18.2363539157143,0,2.99811148314286,2,1,0,418.2832048
198,0.004824961125,27.7190266475,19.59426748625,0,2.998074051,2,1,0,405.81339255
199,0.00481432014285714,27.9907685442857,19.5374233042857,0,2.99811148314286,2,1,0,393.246999885714
200,0.00476296375,28.3001835475,19.8232016625,0,2.997915161875,2,1,0,380.53135885
201,0.00466546014285714,28.67700413,19.1848558028571,0,3.00049761842857,2,1,0,367.670057757143
202,0.004583961625,29.07701395125,18.49384272125,0,4.28414359325,2,1,0,354.620191575
203,0.00459990357142857,29.3858536942857,17.9916547114286,0,4.49528259157143,2,1,0,341.416508671429
204,0.004657057875,29.544435935,17.51641252625,0,3.35182542425,2,1,0,328.1006664625
205,0.00468434914285714,29.5642172842857,12.9844278057143,0,2.99760998157143,2,1,0,314.748626214286
206,0.00463171675,29.392281815,18.060590315,0,2.998074051,2,1,0,301.4298362375
207,0.004565258,29.3564410114286,14.6316716085714,0,2.99811148314286,2,1,0,288.165488185714
208,0.004539267,29.27903473875,15.8196119425,0,2.998074051,2,1,0,274.9101623
209,0.00454979185714286,29.2196350771429,17.9222846757143,0,2.99811148314286,2,1,0,261.703158742857
210,0.004566499375,29.28365440375,18.90708187375,0,2.998074051,2,1,0,248.4900839
211,0.00455662071428571,29.4293697828571,17.47658899,0,2.99811148314286,2,1,0,235.234801242857
212,0.00454958275,29.57142002,17.1190503425,0,2.998074051,2,1,0,221.9052500125
213,0.00455871014285714,29.7229465742857,16.8887585385714,0,2.99811148314286,2,1,0,208.519563414286
214,0.004545802875,29.80292394625,15.1870940225,0,2.998074051,2,1,0,195.0699578375
215,0.004536019,29.6684820357143,18.5374834542857,0,2.99811148314286,2,1,0,181.6407678
216,0.00454074175,29.6310266625,15.38776223,0,2.998074051,2,1,0,168.2477533
217,0.00451626571428571,29.51487732,12.1301873957143,0,2.99811148314286,2,1,0,154.884776757143
218,0.004465737,29.278430995,14.6630048075,0,2.998074051,2,1,0,141.607248825
219,0.00445063985714286,29.1137622157143,14.0659639201429,0,2.99811148314286,2,1,0,128.429957242857
