"Time","Perspiration","Speed","Acceleration","Braking","Steering","Phase","Activity","Failure","Distance"
0,0.00847594288336546,8.17285714285714e-20,3.05343529514286,0,13.3033350228571,0,0,0,-21.3847441
1,0.00843370994780315,0.00119836071428571,3.09822544985714,0.0124456015714286,13.49601519,0,0,0,-21.3843169285714
2,0.00832214182774869,0.000183253125,2.964057213125,49.20592493975,13.4913332325,0,0,0,-21.383622775
3,0.00820253947323218,0.00187798657142857,2.77171948842857,62.5211805371429,13.4915016771429,0,0,0,-21.3838897571429
4,0.00808519789380108,0.006621072125,2.594559111,62.36276808,13.49149212125,0,0,0,-21.3836238675
5,0.00797514220807157,0.00495167557142857,2.57214666685714,50.2663437957143,13.4926352528571,0,0,0,-21.3840499228571
6,0.00785739489678494,0.55769173175,3.426578628125,0.150727326625,11.264409263125,0,0,0,-21.28616603625
7,0.00774336117116899,1.51896244885714,18.8046864014286,0,-19.1195740291429,0,0,0,-20.83804078
8,0.00766022272539948,4.031975340375,22.98157358,0,-60.85765991625,0,0,0,-19.62100217125
9,0.00770255360564866,7.04930899628571,23.0540480785714,0,-75.5970896442857,0,0,0,-17.14167656
10,0.00781222455402663,9.213655107625,20.40335457625,0,-40.5628618215,0,0,0,-13.43284422375
11,0.00793110796666764,10.6046184614286,19.9925243114286,0,27.415863798,0,0,0,-9.01626659314286
12,0.00805328042140645,11.875582505,18.63794384125,0,73.51903064375,0,0,0,-3.9612952775
13,0.00817693837920768,13.0649656685714,24.5333282085714,0,72.2985809771429,0,0,0,1.64678623228571
14,0.00830140409605992,14.78078770875,29.919914135,0,5.868151503625,0,0,0,7.8649572955
15,0.00842622902816163,17.3126004785714,30.4204442285714,0,-27.9826093057143,0,0,0,15.0121445571429
16,0.00855111097072201,19.9449950575,29.698668525,0,-18.85998197,0,0,0,23.4148804425
17,0.00867575102340174,22.2214838385714,33.7498217385714,0,-2.57869162357143,0,0,0,32.9459728242857
18,0.00879973710395112,25.09488271625,37.75733272875,0,0.394053730875,0,0,0,43.61019256
19,0.00892245480124247,28.07673528,26.3485807814286,0,1.07477495571429,0,0,0,55.6432143428571
20,0.00904231107136618,28.8191602,13.560970610625,0,-0.00384966975,0,0,0,68.59409429375
21,0.0091542542497645,28.5934720171429,18.1580134014286,0,1.04514200842857,0,0,0,81.5448450214286
22,0.00920831133566643,28.6511913225,20.68632064375,0,3.677608106125,0,0,0,94.4574163225
23,0.00913555907231125,29.1042293671429,21.0349294742857,0,5.99818172885714,0,0,0,107.486409085714
24,0.00903509003272198,29.52665148625,18.0852468625,0,4.369265135625,1,3,0,120.7468638875
25,0.00898767651704053,29.6304182471429,19.7293799942857,0,2.87560650985714,1,3,0,134.110334214286
26,0.0089436122126564,29.86374773125,20.42284130625,0,2.271257618,1,3,0,147.5374991125
27,0.00885238293041172,30.1710119,21.0081118428571,0,1.49984128071429,1,3,0,161.091837928571
28,0.00874875032112214,30.559726495,20.7479584,0,1.168125124875,1,3,0,174.803628775
29,0.00869126626345084,31.0554727757143,20.51061231,0,-0.934006610857143,1,3,0,188.720363685714
30,0.00865013982882893,31.45659857625,18.57769438875,0,0.014361399125,1,3,0,202.84852675
31,0.0086090944001103,31.64049337,18.32337682,0,2.62478696357143,1,3,0,217.104739442857
32,0.00855047853222878,31.7290200525,18.5308397125,0,4.506140956125,1,3,0,231.42131215
33,0.00844362357850078,31.8220460414286,18.30338675,0,4.43042126514286,1,3,0,245.773889
34,0.00832824246416505,31.89595001375,17.44639372,0,1.838335941875,1,3,0,260.163970225
35,0.00822311668702955,31.9879009942857,18.3807184742857,0,1.49824880928571,1,3,0,274.597259385714
36,0.0081924465345009,32.1141606775,19.52412572,0,1.4990370255,1,3,0,289.06940675
37,0.00825791230232235,32.33962668,19.1852700914286,0,1.49905574157143,1,3,0,303.631302357143
38,0.00836583382255039,32.55978955625,18.79110406875,0,1.500960444625,1,3,0,318.2934736375
39,0.00847706643265939,32.7648107128571,18.4926151585714,0,0.453879498142857,1,3,0,333.0539705
40,0.00856233150841248,32.9551112575,18.72448540875,0,0.01702334925,1,3,0,347.897396475
41,0.00857346051262359,33.14859299,18.4937673428571,0,1.748278839,1,3,0,362.823780742857
42,0.00853877169687999,33.3534361475,18.67136857,0,2.996188252125,1,3,0,377.84371515
43,0.00846621348215553,33.5648915642857,18.8782323014286,0,2.99811148314286,1,3,0,392.961805057143
44,0.00843786171654866,33.7400450475,18.27234128875,0,2.998074051,1,3,0,408.1643944
45,0.00846246912715643,33.88303075,16.0522300728571,0,2.99811148314286,1,3,0,423.444831657143
46,0.00854063735687537,33.68183717125,7.5533352025,0,2.999883139375,1,3,0,438.722484425
47,0.0086132169973932,33.1521420742857,4.83760036785714,0,1.71004375585714,1,3,0,453.831937014286
48,0.00859855590175594,32.401815045,7.79571587775,0,0.0009658535,1,3,0,468.6417918375
49,0.00850082681674928,31.7038789257143,12.90952066,0,-0.00569101385714286,1,3,0,483.111565185714
50,0.00838163821201875,31.4128795,13.9759003415,0,1.598879865125,1,3,0,497.3602883875
51,0.00825852822458899,31.1365821585714,8.99179142671429,0,2.99667798842857,1,3,0,511.499154242857
52,0.00813382101386506,30.6923493225,9.674749860375,0,2.998074051,1,3,0,525.459619175
53,0.00800845208745463,30.2586918271429,14.0559252014286,0,2.99811148314286,1,3,0,539.227192185714
54,0.00788289885928249,30.051610835,17.64178481375,0,2.998074051,1,3,0,552.83740595
55,0.00775759564140377,30.0630464957143,19.3252865685714,0,2.99811148314286,1,3,0,566.4111611
56,0.00763318210499149,30.2009165275,18.221403385,0,2.997959720375,1,3,0,580.0120144125
57,0.00751093823321305,30.2950915128571,18.4117781042857,0,2.59445636571429,1,3,0,593.687058414286
58,0.00739707985464137,30.28877625625,17.95372483,0,1.5009660045,1,3,0,607.366235975
59,0.00733917286227479,30.2305238785714,17.2014473042857,0,1.49905574157143,1,3,0,621.044606771429
60,0.00735561907451471,30.1668555975,16.60827868,0,1.504914975,1,3,0,634.676461025
61,0.00738573632390537,30.1269481342857,16.49035749,0,2.69542760585714,1,3,0,648.302458942857
62,0.00744280691833165,30.09717054625,17.78639808875,0,2.13455728,1,3,0,661.897899375
63,0.00747474455481061,30.06993545,17.8539127914286,0,1.49700190728571,1,3,0,675.495176371429
64,0.00742076124854156,30.0141345875,16.51070557,0,1.4990370255,1,3,0,689.056025675
65,0.00731154878349577,29.9769179628571,16.8034890428571,0,1.49900639328571,1,3,0,702.613139471429
66,0.00719478362177944,29.91015425,16.370024465,0,1.65753416925,1,3,0,716.128586025
67,0.00709067818603849,29.8664059857143,16.7988194471429,0,3.00439374885714,1,3,0,729.634777914286
68,0.00705071873785235,29.8171503525,17.3447997625,0,2.998117230875,1,3,0,743.1044401375
69,0.00701262275766287,29.7752147214286,17.3526948585714,0,2.99811148314286,1,3,0,756.5677076
70,0.00698194259883261,29.7957890875,17.11931198375,0,2.998074051,1,3,0,770.0112181625
71,0.00699778652609807,29.8159442628571,18.0953095214286,0,2.99811148314286,1,3,0,783.478173771429
72,0.00695853498066419,29.8915378775,17.814087495,0,2.998074051,1,3,0,796.9519680125
73,0.00685602708742265,29.8990498185714,17.98153516,0,2.99811148314286,1,3,0,810.464442242857
74,0.0067553922954394,29.88795077625,17.71272316,0,2.998074051,1,3,0,823.9572934875
75,0.00673761461182384,29.9248397271429,17.3122806657143,0,2.99811148314286,1,3,0,837.475856328571
76,0.006805709566348,29.9348899575,17.49483338,0,2.998074051,1,3,0,850.9889586
77,0.00685668179614124,29.9470967028571,16.6620659257143,0,2.99811148314286,1,3,0,864.517091657143
78,0.00683724776407719,30.05818364,16.40207388375,0,2.997959720375,1,3,0,878.053605825
79,0.00674019329231614,30.2113767942857,16.2959480271429,0,2.59445636571429,1,3,0,891.674711357143
80,0.00662283258015195,30.32600504875,16.77384405375,0,1.5009660045,1,3,0,905.3342353875
81,0.00650441050413685,30.4351975271429,17.0572673814286,0,1.49905574157143,1,3,0,919.066559728571
82,0.00639879485495951,30.5366593,17.50241737125,0,1.4990370255,1,3,0,932.8290863375
83,0.00634900806257617,30.5539655057143,16.78996267,0,1.49905574157143,1,3,0,946.635672914286
84,0.00633937378962076,30.471786445,17.3214844325,0,1.4990370255,1,3,0,960.4020077125
85,0.00638507219232768,30.3972227471429,17.9779414471429,0,1.49905574157143,1,3,0,974.154947628571
86,0.00641010376721579,30.3684319275,17.72922254125,0,1.4990370255,1,3,0,987.8652996875
87,0.0063662310551722,30.30085619,18.5026450957143,0,1.49905574157143,1,3,0,1001.57854822857
88,0.00628223492502858,30.24556379375,17.800683305,0,1.4990370255,1,3,0,1015.237538875
89,0.00620286949232658,30.1738636585714,17.5129427885714,0,1.49905574157143,1,3,0,1028.89695914286
90,0.00611286530434506,30.13751483,18.237474995,0,1.4990370255,1,3,0,1042.50544475
91,0.00601676557261805,30.1482649157143,19.3487599285714,0,1.49905574157143,1,3,0,1056.12404042857
92,0.00594078936786439,30.17536786875,18.894435285,0,1.4990370255,1,3,0,1069.732644375
93,0.00586968018868828,30.2369183171429,18.2357153628571,0,1.49905574157143,1,3,0,1083.38612471429
94,0.00581094710536617,30.24880251875,17.58137303,0,1.499151356375,1,3,0,1097.036945875
95,0.00579064275469255,30.2141197457143,18.0792028657143,0,1.74199657385714,1,3,0,1110.70328685714
96,0.00576936008628073,30.1486143975,17.20088227375,0,2.996145072375,1,3,0,1124.327625
97,0.00571602138188613,29.9945621642857,17.09074906,0,2.99742776442857,1,3,0,1137.925395
98,0.00564319624900659,29.84031121125,17.01819956,0,2.557868138875,1,3,0,1151.424558
99,0.00558305984013856,29.6850130614286,14.6738115785714,0,1.49421975614286,1,3,0,1164.88297871429
100,0.00556381513772175,29.42088601375,14.244184285,0,1.65753416925,1,3,0,1178.2155115
101,0.00555786135468468,29.1650281357143,14.6836240842857,0,3.00439374885714,1,3,0,1191.46397642857
102,0.00551940119106095,28.91516196875,13.884988395,0,2.998117230875,1,3,0,1204.566082
103,0.00549626319660498,28.6682059714286,13.8372467342857,0,2.99811148314286,1,3,0,1217.58348157143
104,0.00555604309478406,28.38017771125,14.04487223125,0,2.998074051,1,3,0,1230.456192625
105,0.00566532731390768,28.0183752671429,13.4419057357143,0,2.99816083157143,0,0,0,1243.21187014286
106,0.00578349982349345,27.7249971175,12.56771077375,0,2.98020190775,0,0,0,1255.786897125
107,0.00589913138760605,27.3105411628571,10.710370271,0,1.49277347628571,0,0,0,1268.24123371429
108,0.00598609564357058,26.71739010625,8.434324600875,0,1.49899384575,0,0,0,1280.433222125
109,0.00606513685788308,25.8393979071429,8.63964268514286,0,1.49905574157143,0,0,0,1292.337837
110,0.00614541879123849,24.71672012625,5.266591508375,0.000430967125,1.4990370255,0,0,0,1303.7346935
111,0.00620968787257084,23.6033399057143,3.85729096014286,1.76312221828571,1.49905574157143,0,0,0,1314.66234571429
112,0.00629067984689438,21.75590085,3.668965804,24.92151649375,1.503526644,0,0,0,1324.946639625
113,0.00636956096528265,18.7568279385714,2.97924747728571,25.65030464,-13.1460997832857,0,0,0,1334.12129128571
114,0.00632589041516191,16.98958221125,2.92986330225,12.378770689125,-28.03625109375,0,0,0,1342.09160525
115,0.00621793787876557,16.4270677757143,2.98865791585714,0.0271524482857143,-25.35479963,0,0,0,1349.58247942857
116,0.00610088796719958,16.0069521325,2.830145047125,0.0023998965,-23.83380983,0,0,0,1356.78926275
117,0.00598214286873391,15.5490679742857,2.76393861385714,2.434328848,-17.9938613971429,0,0,0,1363.76312514286
118,0.00586453376285325,14.22026794625,2.538172074125,21.23657570125,-33.76525738,0,0,0,1370.30597875
119,0.00575256043619738,11.3493558957143,2.85329944771429,25.2704094385714,48.247461182,0,0,0,1375.84279257143
120,0.00568114829684366,8.0951510295,2.75982191275,21.56343204875,246.35270505,0,0,0,1380.021623
121,0.00573959124676995,6.62871896728571,2.54556661285714,1.39420241171429,430.486558828571,0,0,0,1383.27764314286
122,0.00585080406647197,6.226328766625,7.26189351425,0.003731859375,483.4585755125,0,0,0,1385.80925775
123,0.00596883655510709,5.84865183828571,12.7995892888571,0,487.081204,0,0,0,1387.43715457143
124,0.00608816582639029,5.714008677125,17.50302928625,0,484.552135675,0,0,0,1387.90138275
125,0.0062049009190755,6.26048918471429,12.8558659725714,0,444.692362042857,0,0,0,1387.28808485714
126,0.00629707676707906,6.462994956875,18.758006505,0,363.4015776,0,0,0,1385.53330175
127,0.00630631516824,7.60648380485714,21.8900860171429,0,238.021160757143,0,0,0,1382.937556
128,0.00629104457332921,9.412756914,20.73386050875,0,113.6600331125,0,0,0,1379.296340875
129,0.00626519398505337,10.8532605857143,17.5759512985714,0,102.039593314286,0,0,0,1374.79007214286
130,0.00619160853488343,11.748046365,19.02998114875,0,95.69800292625,0,0,0,1369.673602125
131,0.00610114061408527,12.9009566471429,15.7434374097143,0,61.1924504271429,0,0,0,1364.19327071429
132,0.00610766635045841,13.353783255,5.9651530795,0,-17.86906986575,0,0,0,1358.393572125
133,0.00621093879422287,13.23912858,18.5249256771429,0,-49.8290009371429,0,0,0,1352.56854457143
134,0.0063302012418548,13.9995844225,24.19664332125,0,-48.29257540125,0,0,0,1346.507066125
135,0.00645299007832527,15.8736264271429,26.3512374314286,0,-18.2220413885714,0,0,0,1339.80862514286
136,0.00657721084420365,18.0618737625,27.14764247,0,-3.5687121625,0,0,0,1332.124262125
137,0.00670190379022917,20.0886763,25.5446761428571,0,3.01562493085714,0,0,0,1323.50515828571
138,0.00682643934928079,22.017740505,34.60853961375,0,7.312279310375,0,0,0,1313.99448625
139,0.00695002120715827,24.8219604671429,31.7841194085714,0,5.39426994128571,0,0,0,1303.45754571429
140,0.00707051179149117,26.90748845,26.1614847875,0,4.4982097665,0,0,0,1291.696725625
141,0.00717670071111242,28.2988171128571,18.4689098014286,0,4.497167225,0,0,0,1279.23143471429
142,0.00718242367568087,28.56241134875,15.70439284125,0,4.4912331275,0,0,0,1266.34328
143,0.00713772825727202,28.6288131928571,17.9027671628571,0,3.298855997,0,0,0,1253.45269028571
144,0.00721299981871451,29.01392773,17.96262658625,0,2.2478295075,0.75,1.125,0,1240.425420125
145,0.00732726086457225,29.4228814714286,17.3620802757143,0,0.244660552571429,2,3,0,1227.24199071429
146,0.00744468686894099,29.76471893375,16.9478554025,0,1.498537368375,2,3,0,1213.856308625
147,0.00755820407456426,30.1024495657143,17.5059833385714,0,3.82695980385714,2,3,0,1200.35176157143
148,0.00764135294566236,30.36370558,13.517176895,0,5.124435811125,2,3,0,1186.66946875
149,0.00759943199176053,30.3858045314286,18.8208262185714,0,3.29652498371429,2,3,0,1172.95663257143
150,0.00749042334993709,30.5848744675,17.82561787375,0,2.998672305125,2,3,0,1159.17905425
151,0.00737263610110194,30.8664593357143,20.44869164,0,2.99614033928571,2,3,0,1145.31553
152,0.00725225377500199,31.1507747625,17.39111693,0,3.780155935625,2,3,0,1131.285257375
153,0.00713153580687474,31.3433382714286,17.1247235171429,0,6.44103522785714,2,3,0,1117.179446
154,0.00701252834885688,31.47674354375,17.12344659125,0,4.85256557125,2,3,0,1102.973538125
155,0.00690015466046203,31.6140161628571,15.9722884614286,0,3.93455511,2,3,0,1088.73859871429
156,0.00683990958029545,31.75833702625,17.00342269375,0,1.708146886875,2,3,0,1074.410093
157,0.00690820999417228,31.9003467428571,17.38481644,0,1.49855424,2,3,0,1060.04839471429
158,0.00701359680408821,32.06878837875,17.05082847125,0,1.4983565695,2,3,0,1045.586033625
159,0.0071084798909185,32.2403225557143,18.2381255428571,0,1.80635639885714,2,3,0,1031.07740728571
160,0.00711743949448979,32.414987795,17.60168821625,0,4.510429341875,2,3,0,1016.45910575
161,0.00705871834843903,32.6440971871429,17.1297281128571,0,4.43316217928571,2,3,0,1001.77895911429
162,0.00697829221223042,32.78307069625,16.00040481375,0,2.965749450875,2,3,0,986.985572625
163,0.00691195184339112,32.8756789385714,17.4321477514286,0,1.49131798257143,2,3,0,972.169056357143
164,0.00686891320085675,32.96659841125,15.91169486875,0,2.244682097625,2,3,0,957.2872957875
165,0.00681537287114902,33.0945602614286,16.9900928971429,0,4.50042586085714,2,3,0,942.381126371429
166,0.00674045096520878,33.18101463125,17.94116958125,0,3.211243604,2,3,0,927.3913938125
167,0.0066908147369126,33.2397887757143,17.2651140928571,0,2.99760998157143,2,3,0,912.400709428571
168,0.00669495233675019,33.25952691625,16.92155201125,0,2.997959720375,2,3,0,897.3634009
169,0.0066956820546872,33.2129456057143,17.1608273028571,0,2.75517065142857,2,3,0,882.364328585714
170,0.00663396336034248,33.23518640375,15.69622435875,0,1.500807115375,2,3,0,867.3484810125
171,0.00654143278186148,33.2928979842857,15.4145039114286,0,1.50144187657143,2,3,0,852.334881285714
172,0.00646897930145362,33.3505364175,16.21806338625,0,2.784947678625,2,3,0,837.2723041875
173,0.00645983747635081,33.3984667314286,16.5165372871429,0,2.99861298485714,2,3,0,822.207679628571
174,0.00649235001965152,33.3656456125,16.3574957075,0,2.998074051,2,3,0,807.111821975
175,0.00647480209902982,33.2932729142857,17.5529372,0,2.99811148314286,2,3,0,792.069240914286
176,0.00642217464403329,33.36530632,16.3305389175,0,2.998074051,2,3,0,777.0008920375
177,0.00641439121818219,33.3614074114286,16.6097320157143,0,2.99811148314286,2,3,0,761.940730071429
178,0.00644799428966314,33.38117318625,15.8981042775,0,2.998074051,2,3,0,746.8515512625
179,0.00651242163298601,33.3905614814286,15.4289045914286,0,2.99811148314286,2,3,0,731.777277528571
180,0.00661333263355719,33.296640025,14.131777295,0,2.998074051,2,3,0,716.700035725
181,0.00670488328112773,33.1432295342857,14.3524234314286,0,2.99879520214286,2,3,0,701.6995095
182,0.00672002226475838,32.98324563,16.54300131125,0,3.438279963875,2,3,0,686.7553922125
183,0.00665689435735584,32.8787296,16.1895729828571,0,4.50301345657143,2,3,0,671.8891232
184,0.00661835430822435,32.85188232375,15.7551476875,0,4.009990573375,2,3,0,657.033271975
185,0.00667898842898288,32.8294625514286,15.7561275657143,0,-0.00315791085714286,2,3,0,642.208767028571
186,0.00677905093357727,32.82722407625,15.27415877875,0,1.3027425005,2,3,0,627.3703529375
187,0.0068328656382389,32.8220754771429,15.2865260057143,0,3.004951955,2,3,0,612.552520942857
188,0.00678259407530172,32.80002260375,16.679514565,0,2.992196101875,2,3,0,597.7182807375
189,0.00670043493206856,32.7648088828571,16.2689095914286,0,1.79952307628571,2,3,0,582.921916442857
190,0.00662594008217455,32.748783085,15.5817155175,0,1.4996352795,2,3,0,568.1173709125
191,0.00655800413844793,32.74556181,16.4954677371429,0,1.49905574157143,2,3,0,553.334335371429
192,0.00645919076727269,32.82809241,21.0651144025,0,1.4990370255,2,3,0,538.5276378
193,0.00636054957810986,33.0396942757143,7.49494953085714,0,1.49809484385714,2,3,0,523.656515742857
194,0.00626173673336243,32.7485492475,3.69494717075,0,1.809788241875,2,3,0,508.776297675
195,0.00618577990094913,32.22248887,4.38332915571429,0,2.991620239,2,3,0,494.094912414286
196,0.00621027045938124,31.4773568975,7.409958122125,0,5.318525995375,2,3,0,479.70158105
197,0.00631253610092776,30.9924116714286,9.31130403928571,0,6.45125718571429,2,3,0,465.608297771429
198,0.00642984934535032,30.66991609375,12.393853583625,0,5.0857307045,2,3,0,451.67379365
199,0.00654963369418292,30.4464034642857,15.27432831,0,1.49444384871429,2,3,0,437.885205828571
200,0.00666785549848046,30.4071039325,15.11008241875,0,1.512882470875,2,3,0,424.1422866875
201,0.00676888061114685,30.4579061857143,15.9404394828571,0,4.93159646657143,2,3,0,410.406625514286
202,0.00680713877783484,30.52210527,15.38308319125,0,4.553709736875,2,3,0,396.6291536875
203,0.00679394219427002,30.4819904985714,14.2771166157143,0,2.99132771657143,2,3,0,382.857087371429
204,0.00677029104516942,30.41292730125,14.09590455875,0,2.9978594105,2,3,0,369.096119375
205,0.0067881352994838,30.3702081171429,13.6620054528571,0,3.01512996271429,2,3,0,355.375482157143
206,0.00687996627683146,30.31470438875,13.82474409625,0,1.554414625125,2,3,0,341.6626498125
207,0.00699837870125227,30.2221599771429,14.7223429171429,0,1.50033438142857,2,3,0,327.995142814286
208,0.0071209300458041,30.07853794375,13.791160055,0,3.089612761875,2,3,0,314.3682026625
209,0.00724431545290699,29.93170617,12.8948527995714,0,4.498583565,2,3,0,300.817395442857
210,0.00736720396755945,29.632361515,9.78175365525,0,4.497111076875,2,3,0,287.339542625
211,0.00748759972149682,29.2521087342857,18.89597352,0,4.497167225,2,3,0,274.057841085714
