"Time","Perspiration","Speed","Acceleration","Braking","Steering","Phase","Activity","Failure","Distance"
0,0.00441321116853673,0.00277704657142857,0.806344892285714,0,-17.7377800271429,0,0,0,-10.56287431
1,0.00432949589613673,0.00315041371428571,0.819462930857143,0,-17.9957876328571,0,0,0,-10.5680167028571
2,0.00428274426626708,0.008053453,0.821585901125,0.0781117665,-17.4014120875,0,0,0,-10.56865244
3,0.00434327414835203,0.00444503271428571,0.724913179,52.8705086828571,-16.4859905528571,0,0,0,-10.5687915885714
4,0.00443725420963162,0.0050912435,0.563342488125,58.59919217375,-19.72024725625,0,0,0,-10.5686660475
5,0.00453616969506789,0.099180982,0.517151732571429,16.6211949602857,-58.5627583071429,0,0,0,-10.56496567
6,0.00463681078587558,0.791562125375,4.221903706,0.0778717445,-165.0599782125,0,0,0,-10.37930840125
7,0.00473791239623979,1.50663870657143,7.53780799857143,0,-260.362128042857,0,0,0,-9.86441457514286
8,0.00483862988501081,2.2015844735,8.896730329375,0,-259.2627358125,0,0,0,-9.030588627125
9,0.0049377703278247,2.903309236,9.72257504414286,0,-174.1366809,0,0,0,-7.894935143
10,0.00503095023353622,3.739814192875,14.44080441375,0,-54.383757496875,0,0,0,-6.4404304275
11,0.00508019428455625,4.99942112457143,17.6077340457143,0,60.7294792328571,0,0,0,-4.53857380285714
12,0.00503192712106033,6.79191646625,18.1725271525,0,134.923517475,0,0,0,-1.923774450125
13,0.00503347141839075,8.60222104614286,21.4671219728571,0,73.69804597,0,0,0,1.56823941228571
14,0.00510647531705436,10.471643541125,24.299328565,0,20.153920975,0,0,0,5.85566678925
15,0.00513927389693643,12.97198598,24.83595809,0,6.51774336457143,0,0,0,11.102764378
16,0.00506690340798902,15.54041826875,27.58210848625,0,-2.477631971625,0,0,0,17.53145056
17,0.00497089232689752,18.1708103614286,27.3995168157143,0,-8.41916197114286,0,0,0,25.1109936585714
18,0.00487039789236551,20.58824998125,27.31598585875,0,-4.96447105575,0,0,0,33.875072995
19,0.00476821996917165,22.8263400128571,27.3657662242857,0,-1.71456967257143,0,0,0,43.6662535
20,0.00466513662262397,24.95743825375,26.83050798875,0,0.0020770365,0,0,0,54.47558992625
21,0.00456156642074279,26.68471249,25.5354333342857,0,-0.00110071485714286,0,0,0,66.1433162885714
22,0.00445771089483824,28.19718578125,25.479193455,0,0.592910168375,0,0,0,78.5479643
23,0.00435372848607936,29.5688541185714,23.8968580657143,0,2.69700665428571,0,0,0,91.5975223557143
24,0.00424973639478797,30.44135262,21.06926212125,0,2.997475797125,0,0,0,105.17626323875
25,0.00414584880933488,31.0131241142857,19.7942897128571,0,2.99811148314286,0.857142857142857,2.57142857142857,0,119.060448928571
26,0.00404220781746348,31.5558664175,20.21182632125,0,2.997959720375,1,3,0,133.191311475
27,0.00393897973933394,32.03569457,19.1545480942857,0,2.59445636571429,1,3,0,147.551896385714
28,0.00383647596455378,32.456204275,18.88472006625,0,1.5009660045,1,3,0,162.1204862875
29,0.00373517589483284,32.8042016242857,18.7948992257143,0,1.49905574157143,1,3,0,176.8648543
30,0.00363637235470506,33.135938365,17.64846649875,0,1.498878136375,1,3,0,191.7556717125
31,0.00354397086937829,33.4221168085714,17.46461167,0,1.50144187657143,1,3,0,206.7866317
32,0.00349621137044594,33.690980435,17.4994352775,0,2.784947678625,1,3,0,221.93998515
33,0.00355601298930179,33.9314163385714,17.3855270342857,0,2.99861298485714,1,3,0,237.213088585714
34,0.00364923165743758,34.18369680875,17.3102723525,0,2.998074051,1,3,0,252.5987232875
35,0.00374772449378804,34.4723695085714,18.5258845371429,0,2.99811148314286,1,3,0,268.106784228571
36,0.00384835940141829,34.8024735675,18.0508536525,0,2.998074051,1,3,0,283.7507466125
37,0.00394997500722435,35.1279263671429,17.7952019914286,0,2.99811148314286,1,3,0,299.5456783
38,0.00405207321490538,35.44069790375,17.79418976875,0,2.99823294025,1,3,0,315.4834817125
39,0.00415428642801277,35.7498118614286,18.32507319,0,3.00031564742857,1,3,0,331.562215342857
40,0.00425629155680364,36.0587013475,18.14788263375,0,0.840940752375,1,3,0,347.7824042625
41,0.00435769832375564,36.3505875471429,17.8243582828571,0,-0.00429580014285714,1,3,0,364.137400614286
42,0.00445769317126347,36.6259141625,18.01076700125,0,1.011847646,1,3,0,380.6159721625
43,0.00455361999277438,36.7934684714286,7.41517805942857,0,1.49366944214286,1,3,0,397.209941271429
44,0.00462965623716977,36.44611431,2.0634449145,0.004150355875,2.510884671625,1,3,0,413.76338195
45,0.00468202051445577,35.6949860757143,1.75852284971429,4.68899877585714,2.99731548285714,1,3,0,430.078906928571
46,0.00463275612873149,33.77436800875,1.63373712925,19.18146566625,2.998074051,1,3,0,445.83170475
47,0.00454072645397296,31.2505228642857,1.27028589285714,16.6666783642857,2.99811148314286,1,3,0,460.512097571429
48,0.00444183610334632,29.82034196,1.138736097,2.57932782825,2.998074051,1,3,0,474.25629365
49,0.00434066284279277,28.8640665742857,1.68410317785714,0.00228736357142857,2.99811148314286,1,3,0,487.520920257143
50,0.0042383183143633,27.93183253,3.132843081125,0,2.998074051,1,3,0,500.3452687125
51,0.00413537873375257,27.00287233,7.09876297771429,0,2.99816083157143,1,3,0,512.767931328571
52,0.00403213555495728,26.3657974425,13.60925675625,0,2.83957690775,1,3,0,524.789601875
53,0.00392883228712272,26.3002437028571,16.6228475757143,0,1.49277347628571,1,3,0,536.685740528571
54,0.00382570881051463,26.4770860375,16.84759845,0,1.49899384575,1,3,0,548.59063455
55,0.00372307880005732,26.8571712757143,18.5685915128571,0,1.49795502671429,1,3,0,560.632773557143
56,0.00362163227471425,27.44059555375,20.430846785,0,2.086069244625,1,3,0,572.8796512375
57,0.00352329823805626,28.1618718085714,20.0362326228571,0,2.997473989,1,3,0,585.431777614286
58,0.0034460439735011,28.84739363,18.64383539125,0,2.998074051,1,3,0,598.3079897875
59,0.00342449452333201,29.45614096,18.0643363971429,0,2.99811148314286,1,3,0,611.484850514286
60,0.003425541932989,29.89207534375,16.76130199,0,2.998074051,1,3,0,624.8935713
61,0.00343271340902453,30.2359520271429,16.9856680842857,0,2.99811148314286,1,3,0,638.479445128571
62,0.00344330048943991,30.50233397125,17.078832815,0,2.998391829375,1,3,0,652.19277495
63,0.00345591913367687,30.69920335,15.8227771571429,0,2.99333921314286,1,3,0,666.021363614286
64,0.00346997690211763,30.86666084875,16.69974836625,0,0.425299066375,1,3,0,679.9155359625
65,0.00348501873228635,31.1547837871429,16.6305988128571,0,0.065742957,1,3,0,693.919603657143
66,0.00350082894340833,31.48711084,16.36145748375,0,2.79940013525,1,3,0,708.056939375
67,0.00351720519712668,31.7111744,16.0780762585714,0,2.99891841557143,1,3,0,722.336316028571
68,0.00353404979534349,31.8566599475,16.69367316875,0,2.998074051,1,3,0,736.686524925
69,0.00355125590710923,31.9731512771429,16.1433576171429,0,2.99811148314286,1,3,0,751.111487028571
70,0.00356877223538713,32.13636624375,16.39096183375,0,2.998074051,1,3,0,765.59048915
71,0.00358653522612472,32.2381491271429,15.7660637414286,0,2.99811148314286,1,3,0,780.142414157143
72,0.0036045151731673,32.39813406,15.50788310375,0,2.998074051,1,3,0,794.736579425
73,0.00362267139997679,32.5894793742857,13.8070018757143,0,2.99811148314286,1,3,0,809.425648485714
74,0.00364098530277785,32.64071744625,10.51056045,0,2.999997470375,1,3,0,824.156585075
75,0.00365942881371286,32.6102867257143,10.8397035428571,0,2.11369887385714,1,3,0,838.906542614286
76,0.00367798975466279,32.541760165,10.7996034075,0,1.4980739,1,3,0,853.6169447625
77,0.00369664812094463,32.4333787,11.2718793371429,0,1.49905574157143,1,3,0,868.300497942857
78,0.00371539539154789,32.3482422825,11.096925815,0,1.4990370255,1,3,0,882.92179785
79,0.0037342167131826,32.2574274714286,13.3875349885714,0,1.49863874585714,1,3,0,897.526180428571
80,0.00375310565437397,32.19136968,13.16354149,0,2.52627515725,1,3,0,912.07424155
81,0.00377205109244801,32.1447790685714,12.7171828828571,0,4.50131636785714,1,3,0,926.613083128571
82,0.00379104798914534,32.05316992,13.71580322625,0,4.495445810875,1,3,0,941.1044122625
83,0.00381008777666776,31.9469718357143,10.7286257751429,0,3.77192709214286,1,3,0,955.566172542857
84,0.00382916607397028,31.7392959975,8.351969534,0,1.7141028735,1,3,0,969.945933325
85,0.00384827590371456,31.4172149857143,8.05452086828571,0,1.49855424,1,3,0,984.222102585714
86,0.00386741414324978,31.072973115,8.42585646075,0,1.49871924725,1,3,0,998.32175985
87,0.00388657473862629,30.7305133514286,9.476242688,0,1.503828012,1,3,0,1012.28823285714
88,0.00390575435773494,30.38887119375,9.19299103625,0,3.930392220375,1,3,0,1026.07759275
89,0.00392494864779019,30.0924493185714,10.4723168812857,0,4.49578409285714,1,3,0,1039.751633
90,0.00394415425604277,29.87700992875,10.77004002925,0,3.21120042425,1,3,0,1053.281524625
91,0.00396336699338577,29.6996684085714,10.5221882042857,0,2.99760998157143,1,3,0,1066.75962914286
92,0.00398258366659273,29.53196018125,10.5795993725,0,2.998074051,1,3,0,1080.124220625
93,0.00400180095820424,29.36586965,11.35426954,0,2.99811148314286,1,3,0,1093.44450957143
94,0.00402101489225165,29.2015271475,10.56061467125,0,2.998074051,1,3,0,1106.663012625
95,0.00404022283409575,29.0285988142857,10.4065766557143,0,2.99811148314286,1,3,0,1119.82892585714
96,0.00405942025667379,28.85140273125,10.075088169375,0,2.998074051,1,3,0,1132.890051625
97,0.00407860432526113,28.6793812471429,10.2992251228571,0,2.99811148314286,1,3,0,1145.90461357143
98,0.00409777049021537,28.3935110375,9.809551514375,0,2.998074051,1,3,0,1158.783895125
99,0.0041169158576105,28.0064819014286,10.6489541404286,0,2.99811148314286,1,3,0,1171.54533557143
100,0.00413603490410395,27.64096641,11.34974170125,0,2.998074051,1,3,0,1184.099215
101,0.00415512417515799,27.3401195114286,13.04478486,0,2.99811148314286,1,3,0,1196.53062257143
102,0.00417417725377744,27.15697876,13.4783402725,0,2.998074051,1,3,0,1208.828964125
103,0.00419319037676558,26.99789123,13.0341309285714,0,2.99811148314286,1,3,0,1221.07742828571
104,0.00421215555057744,26.81012624125,11.77214260625,0,2.996150632125,0.875,2.625,0,1233.2211145
105,0.00423106821758391,26.5645658857143,7.83190179157143,0,3.88396260214286,0,0,0,1245.29883257143
106,0.00424991775342355,26.05174573625,1.87169558625,0,3.783029599875,0,0,0,1257.1844745
107,0.00426869868965442,25.14631736,1.61420463414286,0.000231717285714286,1.61978727642857,0,0,0,1268.78320228571
108,0.00428739733023821,24.138227605,1.540965793125,0.195348863375,1.49819624,0,0,0,1279.89951125
109,0.00430600567293427,23.3270125428571,1.46802958671429,3.25010571914286,1.49446544257143,0,0,0,1290.63049314286
110,0.0043245056078778,22.565043045,1.506126011875,12.99725971925,2.510884671625,0,0,0,1301.007252
111,0.00434288607721702,21.4325206828571,1.47527738828571,15.1328695885714,2.99741417957143,0,0,0,1310.97144028571
112,0.00436112193753844,19.95950823,1.417002482,18.8530571,2.823916082125,0,0,0,1320.3252955
113,0.00437919658149854,17.9683891857143,1.287589507,20.4832747914286,-5.61661990214286,0,0,0,1328.92739071429
114,0.00439707341271332,16.02692362375,1.17006110825,17.92842110375,-21.07500355875,0,0,0,1336.559637625
115,0.0044147271184036,14.8098892371429,1.14865926428571,15.7792788642857,-21.6353719714286,0,0,0,1343.50122171429
116,0.00443210259258683,13.5468920375,1.0957609105,18.38182965,-4.48019252775,0,0,0,1349.847909125
117,0.00444915791910707,11.1952069641429,1.23426578714286,26.14563887,61.2675463428571,0,0,0,1355.49011514286
118,0.00446580590682814,7.862164516625,0.542914898375,23.361559115,194.7537713125,0,0,0,1359.75640075
119,0.0044819735857983,6.39735683257143,0.598359957,0.800447852428571,377.918169271429,0,0,0,1362.88796457143
120,0.00449751228795584,6.029908374375,2.876693855125,0.00143010625,491.7492631375,0,0,0,1365.26468
121,0.00451228528599139,5.74254144385714,3.88941628728571,0,531.372680485714,0,0,0,1366.68355714286
122,0.00452601681277812,5.34665537,5.827818708625,0,555.8897620125,0,0,0,1366.840654
123,0.00453842309810999,5.11621196657143,14.1072863385714,0,553.0168883,0,0,0,1365.97999828571
124,0.00454893106052411,5.850047467375,17.16747909375,0,481.7852569375,0,0,0,1364.160679375
125,0.00455687244013588,7.29685415,17.7218102742857,0,315.190646414286,0,0,0,1361.42299942857
126,0.00456085823915848,8.809341443875,19.60854281125,0,141.22438288,0,0,0,1357.858524
127,0.00455901900919933,10.4982226017143,19.6798627985714,0,60.48600658,0,0,0,1353.72119357143
128,0.00454726077463279,12.047775755,18.82066254,0,5.667904273875,0,0,0,1348.87844675
129,0.00451932128075827,13.3482504828571,19.5195118342857,0,-34.3425940671429,0,0,0,1343.44433242857
130,0.00446259217776554,14.5609234725,20.56209301875,0,-51.94063688625,0,0,0,1337.31895725
131,0.00437501091177718,15.8383721342857,20.5291488628571,0,-47.25389552,0,0,0,1330.56617642857
132,0.00427749569395292,17.058775665,20.29419452,0,-13.85712661775,0,0,0,1323.13032525
133,0.00418044149631078,18.1851598428571,20.2720103442857,0,3.00254529714286,0,0,0,1315.20608414286
134,0.00409371372090886,19.29381449625,20.10435969625,0,2.993760977625,0,0,0,1306.7092685
135,0.00406425378512521,20.3420893928571,21.0322771742857,0,3.082673193,0,0,0,1297.76895271429
136,0.00408141817486123,21.3568634975,20.56049175,0,7.480676796125,0,0,0,1288.321464
137,0.00411521512940017,22.4071069514286,20.6304106642857,0,3.33754719885714,0,0,0,1278.451735
138,0.00415941536360225,23.36301248125,20.2137652675,0,1.499235731875,0,0,0,1268.091117
139,0.00418998365927444,24.1642823028571,18.0376216714286,0,2.14565169157143,0,0,0,1257.36482871429
140,0.00421730967836376,24.71802314375,17.73267819,0,4.49517653775,0,0,0,1246.300892375
141,0.00423004063896613,25.2899214285714,17.9430143985714,0,3.61275461571429,1.71428571428571,2.57142857142857,0,1235.02741057143
142,0.0041984666978909,25.91246668875,18.057352815,0,2.9971109255,2,3,0,1223.444018
143,0.00416121088533559,26.52872469,17.6126515314286,0,2.99811148314286,2,3,0,1211.62077228571
144,0.00414939149522075,27.11865457375,17.32887333625,0,2.996150632125,2,3,0,1199.482156
145,0.00414053062963614,27.5988335171429,15.9064237114286,0,4.04323837885714,2,3,0,1187.14225342857
146,0.00412190445480997,28.0213426425,16.193756425,0,4.498074202375,2,3,0,1174.562314875
147,0.00408774047282161,28.3795899271429,14.8558974557143,0,4.497167225,2,3,0,1161.83829028571
148,0.00406476215445629,28.5495203275,14.31307896,0,4.497111076875,2,3,0,1148.96348925
149,0.00406470226631447,28.6188984828571,13.9307667528571,0,4.497167225,2,3,0,1136.071802
150,0.00408112481251813,28.69198716625,14.82849262875,0,4.497111076875,2,3,0,1123.114902625
151,0.00413004338181977,28.7889252514286,14.5040316414286,0,4.49721657328571,2,3,0,1110.14894885714
152,0.00419825505675672,28.8778857475,14.019334165,0,4.47923893325,2,3,0,1097.106124125
153,0.00426469703901804,28.9678270214286,13.5103083114286,0,2.99182921814286,2,3,0,1084.05989185714
154,0.0043272040444395,29.05389843375,13.79538323875,0,2.99803087125,2,3,0,1070.94162125
155,0.00433203096667508,29.0989164128571,15.6491665985714,0,2.99811148314286,2,3,0,1057.81910857143
156,0.0042638665528009,29.18650555,16.636853215,0,2.998074051,2,3,0,1044.641156125
157,0.00417889149368362,29.3210982142857,16.3970459628571,0,2.99811148314286,2,3,0,1031.44881414286
158,0.00411134437917206,29.533432305,16.318172605,0,2.998074051,2,3,0,1018.137556625
159,0.00408691308177722,29.7121169928571,14.6236564128571,0,2.99480933885714,2,3,0,1004.77164304286
160,0.0041160615698898,29.8435458275,14.2800691125,0,5.04019204625,2,3,0,991.3046646625
161,0.00418221857926193,29.9508309571429,14.4806669214286,0,6.84787098971429,2,3,0,977.817146842857
162,0.00426103694508598,30.05435578375,15.35900545625,0,3.91393681625,2,3,0,964.249637
163,0.00428961781749166,30.1408823571429,14.8626482071429,0,2.99984969257143,2,3,0,950.6699222
164,0.00424200755424064,30.2267089025,14.8197846775,0,2.27009905425,2,3,0,937.0201811375
165,0.00418630138329946,30.3301854614286,14.6799081457143,0,1.50446550642857,2,3,0,923.357818985714
166,0.00414066594965705,30.50657694625,15.08032973375,0,3.93023333125,2,3,0,909.6045637625
167,0.0041042622050188,30.69646034,15.3948260128571,0,4.49817022814286,2,3,0,895.789443185714
168,0.00408407199171901,30.86138404375,16.1952231425,0,4.497111076875,2,3,0,881.871622925
169,0.00406963576436275,30.9956171457143,14.95016382,0,4.497167225,2,3,0,867.910039857143
170,0.00405676446885165,31.12201927,15.17831683875,0,4.499034495875,2,3,0,853.8653668375
171,0.00402455956731634,31.21411548,14.0098687014286,0,3.61275461571429,2,3,0,839.799062071429
172,0.00397428569863188,31.3003235375,13.92803650625,0,2.9971109255,2,3,0,825.668329675
173,0.0039109828756296,31.3847133428571,14.4330982628571,0,2.99811148314286,2,3,0,811.527614757143
174,0.00384715903666529,31.4567251975,14.1939287175,0,2.998074051,2,3,0,797.323278125
175,0.00379013045495552,31.5366815042857,13.5343151385714,0,2.99811148314286,2,3,0,783.108020485714
176,0.00375982470386172,31.4807967825,9.302892961625,0,2.997393595,2,3,0,768.858203825
177,0.00376704916549708,31.2303598714286,4.37354777928571,0,3.30541214042857,2,3,0,754.700385171429
178,0.00378429847778814,30.89928119,3.633631427875,0,6.009466367375,2,3,0,740.657744575
179,0.00379032995585532,30.5588248085714,3.56807178114286,0,5.93216857271429,2,3,0,726.783004271429
180,0.00377608166581992,30.230898145,3.876273344,0,4.476666340125,2,3,0,713.0444488125
181,0.00375122136952768,29.8843972685714,3.27429109371429,0,2.89461826942857,2,3,0,699.473386028571
182,0.00372154916292516,29.53735048,3.69650927975,0,1.501405369375,2,3,0,686.0456261625
183,0.00368539258081811,29.0325870585714,6.30236177628571,0,1.49906812085714,2,3,0,672.824145371429
184,0.00364358602935352,28.59832804875,7.62456665825,0,4.519088841875,2,3,0,659.80178435
185,0.00362153572547599,28.1790416042857,9.25134213085714,0,5.99798230214286,2,3,0,646.984874785714
186,0.00360550900823981,27.83598462625,10.66297523375,0,5.996148102375,2,3,0,634.325965775
187,0.00358255289118727,27.5817423257143,14.5546174842857,0,5.99622296657143,2,3,0,621.819591314286
188,0.0035759959094163,27.48199774,14.1406017,0,5.9963069915,2,3,0,609.3799041625
189,0.00359675488904179,27.4446585585714,13.7058394885714,0,5.99388618,2,3,0,596.989356414286
190,0.00365280924228525,27.4174937575,14.07515681,0,4.551740306125,2,3,0,584.59752315
191,0.00373935873272737,27.4174226742857,13.6930118314286,0,2.99132771657143,2,3,0,572.223642014286
192,0.0038298292005687,27.42504835,13.258033725,0,2.99803087125,2,3,0,559.8289220375
193,0.00388727292373081,27.4040072328571,13.2095204485714,0,2.99811148314286,2,3,0,547.453480042857
194,0.00393805167589636,27.40786283625,13.05453760875,0,2.998074051,2,3,0,535.0650627125
195,0.00400317378830484,27.4124158542857,13.4191890871429,0,2.99879520214286,2,3,0,522.692982828571
196,0.00404034075653211,27.42184146125,13.64190506125,0,3.438279963875,2,3,0,510.30011115
197,0.00404925346436806,27.4253823314286,14.8791535185714,0,4.50195386228571,2,3,0,497.922319814286
198,0.00405111974934938,27.44660354625,14.5740498225,0,4.497111076875,2,3,0,485.5234176375
199,0.0040341865633988,27.4835000314286,14.33071179,0,4.497167225,2,3,0,473.1253519
200,0.00402733333332848,27.52541401875,14.34436238625,0,4.497111076875,2,3,0,460.6946422
201,0.00407302209174867,27.56234329,16.6944744628571,0,4.497167225,2,3,0,448.259095771429
202,0.00416310393276409,27.64728841375,15.7567270375,0,4.497111076875,2,3,0,435.7851053375
203,0.00426162562785404,27.7165243585714,14.0368985,0,4.497167225,2,3,0,423.2842282
204,0.0043612737175935,27.72157208625,14.353853335,0,4.497111076875,2,3,0,410.7559863875
205,0.0044600275401196,27.71473327,14.9387129928571,0,4.497167225,2,3,0,398.244386014286
206,0.00455486630845192,27.7026120675,16.3749461925,0,4.4912331275,2,3,0,385.71789705
207,0.00462981825950133,27.7624873142857,14.3142286857143,0,3.29857881814286,2,3,0,373.196271414286
208,0.00460142510387988,27.791989945,14.218825835,0,2.998672305125,2,3,0,360.646726375
209,0.00451427666963786,27.8426700214286,14.0217476071429,0,2.99811148314286,2,3,0,348.085847514286
210,0.00441973433607277,27.8448567425,14.624268965,0,2.998074051,2,3,0,335.5054564125
