"Time","Perspiration","Speed","Acceleration","Braking","Steering","Phase","Activity","Failure","Distance"
0,0.00493676098409221,0,1.26296488471429,0,115.295570185714,0,0,0,-8.755429261
1,0.00497407001765998,0,1.27765759557143,0,116.965464985714,0,0,0,-8.75525436628571
2,0.00493367484867146,0,1.277025946375,4.267111001,116.924888,0,0,0,-8.754970162375
3,0.00486649657955719,0,1.20489199414286,64.8870733628571,116.926347857143,0,0,0,-8.75507266371429
4,0.00479596900165823,0,1.114443307,72.036152235,116.96512735,0,0,0,-8.75715754075
5,0.00472707729389607,0.000385808571428571,1.08927201385714,53.30971177,30.8881320967143,0,0,0,-8.75503990157143
6,0.00467630853029048,0.30769159375,5.05404949375,3.4172217965,-296.4270656375,0,0,0,-8.71313313675
7,0.00470070431063335,1.32716205042857,13.9494576,0,-445.372202485714,0,0,0,-8.38703159357143
8,0.00476427004903073,3.062346006,18.53900705625,0,-377.9000080625,0,0,0,-7.41852028425
9,0.00482228050781813,5.36192076171429,20.38292556,0,-44.4784270118571,0,0,0,-5.626580145
10,0.00487350976701769,7.79085756725,22.2001685875,0,157.13593705,0,0,0,-2.7941967985
11,0.00491045923954033,10.4109292537143,24.20857255,0,136.656031618571,0,0,0,1.29643843
12,0.00488712089988089,13.14913815875,26.676796845,0,22.285946344375,0,0,0,6.621275519625
13,0.00482339825904635,15.9550543228571,26.7000739757143,0,-7.20829414485714,0,0,0,13.1538143128571
14,0.00475056299722241,18.38577810625,26.75144370375,0,-16.89267461125,0,0,0,20.9016961175
15,0.00467599003403224,20.5473758742857,27.9851764828571,0,-7.54120285042857,0,0,0,29.6644258671429
16,0.00460113955502561,22.78950199125,28.0106587025,0,-3.937256325625,0,0,0,39.45161094
17,0.00452723586952951,24.8255530828571,26.7235802942857,0,1.77962210985714,0,0,0,50.2132979885714
18,0.00445790070990257,26.4254019225,26.1869105375,0,2.995408389125,0,0,0,61.801181745
19,0.00442219348207607,27.96924866,26.3703791728571,0,3.55783596157143,0,0,0,74.0807074257143
20,0.00445436427176081,29.244559915,13.220600011625,0,4.495249639125,0,0,0,87.04804541
21,0.00447268777839474,29.1094728785714,10.1281688402857,0,3.29857881814286,0,0,0,100.2811184
22,0.00445944100687147,28.80693986625,13.9149695025,0,2.998672305125,0.375,0.375,0,113.3473665625
23,0.00445342556902242,28.6403754857143,14.0550671014286,0,2.99811148314286,1,1,0,126.325355828571
24,0.00443775499525139,28.55162242625,15.314678065,0,2.998074051,1,1,0,139.2390676875
25,0.00438992796030082,28.5865861657143,16.9030897214286,0,2.99811148314286,1,1,0,152.143419242857
26,0.00433491804990605,28.81416410625,16.67467478875,0,2.998074051,1,1,0,165.106367275
27,0.00429613015814415,29.1322147914286,17.8887333142857,0,2.99811148314286,1,1,0,178.195428114286
28,0.00427513666568382,29.54049734125,18.4818569225,0,2.998074051,1,1,0,191.4512842375
29,0.00424437841588146,29.9743354628571,18.2299760185714,0,2.99811148314286,1,1,0,204.893961042857
30,0.00418358147282568,30.27008673,10.25437145575,0,2.998074051,1,1,0,218.5182768625
31,0.00412437770844246,30.0641809914286,11.7459615724286,0,2.99811148314286,1,1,0,232.161652685714
32,0.00412069817287135,29.90139952125,16.05666547875,0,2.998074051,1,1,0,245.69700575
33,0.00417533185839313,29.8869833071429,15.6439843757143,0,2.99811148314286,1,1,0,259.200998971429
34,0.00424546375028157,29.78585617125,4.874183162375,0,2.998074051,1,1,0,272.6920769875
35,0.00431796319180493,29.3362055685714,11.4073945115714,0,2.99811148314286,1,1,0,286.056808785714
36,0.00439042273471546,29.03776503125,11.098607689375,0,2.998074051,1,1,0,299.2258681125
37,0.00446049695880617,28.7359051728571,6.23452807357143,0,2.99811148314286,1,1,0,312.294887157143
38,0.00451515342016701,28.28752059375,11.78459685125,0,2.998074051,1,1,0,325.1608240875
39,0.00450707871825043,28.0201001071429,11.8470611514286,0,2.99811148314286,1,1,0,337.880754371429
40,0.00444630866451617,27.78850086875,13.41674258,0,2.998074051,1,1,0,350.4842105125
41,0.00437661667371619,27.6905286057143,16.8534428314286,0,2.99811148314286,1,1,0,363.004866428571
42,0.00431293302969546,27.92502250375,16.21503003,0,2.998074051,1,1,0,375.559588075
43,0.00427171678063331,28.2385310942857,15.8437563471429,0,2.99811148314286,1,1,0,388.247644885714
44,0.00424535457480892,28.36561618125,15.66646331,0,2.998074051,1,1,0,401.0332482375
45,0.00420716610391179,28.4286365257143,15.7970121871429,0,2.99811148314286,1,1,0,413.864555928571
46,0.00416565392894,28.48964875625,15.72659463875,0,2.998074051,1,1,0,426.7141693
47,0.00414381046825217,28.6196371328571,15.4571002771429,0,2.99811148314286,1,1,0,439.616459257143
48,0.00412947930037476,28.73922871625,15.32197376625,0,2.998074051,1,1,0,452.5688244125
49,0.00412593044051146,28.84851054,15.7300945242857,0,2.99811148314286,1,1,0,465.577442685714
50,0.0041493460568723,28.94686966625,15.89975858125,0,2.998074051,1,1,0,478.6305556125
51,0.00416548924867545,29.0703694628571,15.5519099385714,0,2.99811148314286,1,1,0,491.736196385714
52,0.00417052949325803,29.1752734875,15.222582595,0,2.998074051,1,1,0,504.888761125
53,0.00415940544973554,29.2753647228571,15.7373393542857,0,2.99811148314286,1,1,0,518.0984953
54,0.00410614548299281,29.38607028875,15.39402755625,0,2.998074051,1,1,0,531.3449538375
55,0.00403792672510224,29.5095710157143,12.149647089,0,2.99811148314286,1,1,0,544.649466557143
56,0.00398033096189823,29.33201871875,10.524287971875,0,2.998074051,1,1,0,557.9520293875
57,0.00394543406832331,29.1101506914286,13.5723415428571,0,2.99811148314286,1,1,0,571.148568457143
58,0.00392547828492493,29.0597614725,14.64052541625,0,2.998074051,1,1,0,584.2803323125
59,0.00394329406873113,29.0706724771429,14.5834619757143,0,2.99811148314286,1,1,0,597.415395571429
60,0.00400131342666477,29.06333554375,14.115563945,0,2.998074051,1,1,0,610.5414580375
61,0.00406391125288957,29.0249038057143,14.2913408357143,0,2.99811148314286,1,1,0,623.667690171429
62,0.00410641849898256,28.95893440375,15.2576166475,0,2.998074051,1,1,0,636.7557455625
63,0.00409846726788511,28.9294186457143,14.8402514628571,0,2.99811148314286,1,1,0,649.837089314286
64,0.00403983206346676,28.94232894,14.042525550375,0,2.998074051,1,1,0,662.903439875
65,0.00397614578415573,28.8377815885714,10.2999247561429,0,2.99811148314286,1,1,0,675.978669157143
66,0.00394661746703329,28.5897611925,14.2079963225,0,2.998074051,1,1,0,688.9322754125
67,0.00398240479098639,28.5150843671429,15.4969860471429,0,2.99811148314286,1,1,0,701.8316755
68,0.00401787641571313,28.52638007375,15.21693823,0,2.998074051,1,1,0,714.710116675
69,0.00403378082204924,28.5963622971429,15.31524398,0,2.99811148314286,1,1,0,727.616339928571
70,0.00407010820731827,28.67947888625,14.66670785875,0,2.998074051,1,1,0,740.54584875
71,0.00413449225831551,28.7371821385714,14.3347270042857,0,2.99811148314286,1,1,0,753.525785742857
72,0.00419649885734628,28.8592588025,13.220212097,0,2.998074051,1,1,0,766.523181075
73,0.00422245631304156,28.7636827871429,8.737306519,0,2.99811148314286,1,1,0,779.565711714286
74,0.00421510491213671,28.522901135,15.31307229125,0,2.998074051,1,1,0,792.48329145
75,0.004209569765279,28.5379401857143,14.9160235442857,0,2.99811148314286,1,1,0,805.372469257143
76,0.00421198802895902,28.66818178125,14.7429627875,0,2.998074051,1,1,0,818.284958625
77,0.00421438964452707,28.81263472,14.66309067,0,2.99811148314286,1,1,0,831.279192171429
78,0.0042283892454902,28.97241999125,14.77993832625,0,2.998074051,1,1,0,844.3217274875
79,0.004245109729864,29.0946910042857,14.95612025,0,2.99811148314286,1,1,0,857.446324314286
80,0.00421182879614102,29.23385687875,14.57427956375,0,2.998074051,1,1,0,870.6083784375
81,0.00416035200564172,29.3608912628571,14.4923980071429,0,2.99811148314286,1,1,0,883.850794985714
82,0.00414885671345349,29.32842735125,14.380445405,0,2.998074051,1,1,0,897.105390375
83,0.00414716426818382,29.2780778957143,15.3116080842857,0,2.99811148314286,1,1,0,910.348010814286
84,0.00410713975479734,29.3231493175,15.67661975625,0,2.998074051,1,1,0,923.5783433875
85,0.00404853719326833,29.32688222,15.8315176157143,0,2.99811148314286,1,1,0,936.841552757143
86,0.00403005044786254,29.29396997625,15.5361306625,0,2.998074051,1,1,0,950.071745
87,0.00403902361434494,29.2220241071429,15.43002477,0,2.99811148314286,1,1,0,963.2992966
88,0.00403521808916704,29.13951365875,15.75372598125,0,2.998074051,1,1,0,976.475208225
89,0.00403187550688811,29.0794993514286,15.35746987,0,2.99811148314286,1,1,0,989.639496642857
90,0.00403036187950592,29.00480382125,16.28235067625,0,2.998074051,1,1,0,1002.7470313125
91,0.00403123371648346,28.9941517542857,16.0859486242857,0,2.99811148314286,1,1,0,1015.85717985714
92,0.00402213991168756,28.99679789,15.6044737075,0,2.998074051,1,1,0,1028.94363025
93,0.00398908024831344,28.9830371242857,10.6086631458571,0,2.99811148314286,1,1,0,1042.05716842857
94,0.0039421957137477,28.685448295,14.12556274,0,2.998074051,1,1,0,1055.071204375
95,0.00387971628272368,28.5477238128571,16.0157225785714,0,2.99811148314286,1,1,0,1068.000377
96,0.00383257601725229,28.6663284925,15.74921215875,0,2.998074051,1,1,0,1080.905133
97,0.00385926482994033,28.8040947385714,16.0338517014286,0,2.99811148314286,1,1,0,1093.89733885714
98,0.0039203974901619,28.9452505725,16.063856325,0,2.998074051,1,1,0,1106.92833825
99,0.00396195211818067,29.1041229085714,15.7730816871429,0,2.99811148314286,1,1,0,1120.05019357143
100,0.00393276295448995,29.23691509375,15.8972844275,0,2.998074051,1,1,0,1133.21459825
101,0.00391029369345535,29.3548387971429,15.72958285,0,2.99811148314286,1,1,0,1146.46038357143
102,0.0039482938897563,29.2142075075,9.80490323225,0,2.998074051,1,1,0,1159.696971375
103,0.0039671351080388,28.9155644828571,13.37583398,0,2.99811148314286,1,1,0,1172.83516328571
104,0.00391519420479325,28.768770995,13.35076409625,0,2.998074051,1,1,0,1185.853466375
105,0.00384981258367935,28.6337054785714,13.7074054885714,0,2.99811148314286,1,1,0,1198.83144257143
106,0.00379382889267801,28.5193448325,14.26101022625,0,2.998074051,1,1,0,1211.7254015
107,0.00380260133384437,28.4109581671429,14.1209331957143,0,2.99811148314286,1,1,0,1224.60330542857
108,0.00386771921327146,28.3341627875,13.89271702875,0,2.998074051,0.5,0.5,0,1237.4050285
109,0.00394091870209611,28.2578695414286,13.7348393085714,0,2.99811148314286,0,0,0,1250.202801
110,0.00401649991301468,28.17587069625,10.87456385725,0,2.998074051,0,0,0,1262.93443775
111,0.00409309217034697,27.8233433428571,7.83765073085714,0,2.99811148314286,0,0,0,1275.62162714286
112,0.00417024212716801,27.38342206375,6.74183699875,0.00314327,2.998074051,0,0,0,1288.066192875
113,0.00424768308947553,26.8358011628571,2.35358891028571,4.59386890414286,3.00235585771429,0,0,0,1300.350876
114,0.00432527513334914,25.20926322625,1.713651250125,21.09482268375,1.561202767625,0,0,0,1312.141084
115,0.0044029049079699,22.5833239542857,1.25261479642857,23.0792736028571,-10.5951022208571,0,0,0,1322.970517
116,0.00448047713381027,20.1810616675,1.12002979775,24.33030251375,-49.0025282425,0,0,0,1332.561360625
117,0.00455789719895215,17.7163919757143,1.10766515385714,25.5264107971429,-77.44192218,0,0,0,1340.99779914286
118,0.00463503134811538,15.26474704,1.0401444165,24.43052642375,-35.142183985,0,0,0,1347.92375725
119,0.0047117163350026,12.6364643128571,1.23173614085714,24.7022349557143,94.3299808514286,0,0,0,1353.67465714286
120,0.00478761812503592,10.594989775,1.57068554875,16.103504268125,257.0507342,0,0,0,1358.64971675
121,0.00486216740982321,9.92184292228571,3.02922093228571,0.105789938428571,399.677258314286,0,0,0,1363.230762
122,0.00493355652079178,9.57728959325,10.061162965375,0,488.8984935375,0,0,0,1366.5479585
123,0.00499286775516231,9.38524435614286,13.0818198314286,0,523.2503437,0,0,0,1367.39355757143
124,0.00498255077290318,9.60711726275,15.90840568875,0,480.6111572875,0,0,0,1365.179534125
125,0.00491881594202982,10.8479407314286,20.9623415114286,0,209.295939842857,0,0,0,1360.95366614286
126,0.00484632840507912,12.64025196875,26.25755973375,0,59.420140595,0,0,0,1355.73525225
127,0.00477137684838252,15.2894419071429,27.23917857,0,2.60858874485714,0,0,0,1349.56403828571
128,0.00469518178285488,18.03134739,27.872167735,0,-18.01132101625,0,0,0,1342.076313625
129,0.00461831040313226,20.7349325271429,27.8873247642857,0,-20.3316600171429,0,0,0,1333.378127
130,0.00454100291300624,23.14739230875,26.98669720875,0,-7.89543756425,0,0,0,1323.4332905
131,0.00446343517807296,25.1791226271429,24.9045564828571,0,5.71940388071429,0,0,0,1312.53932328571
132,0.0043857079882145,26.630864255,22.4485671175,0,6.180667172875,0,0,0,1300.784379625
133,0.0043079142815366,27.7274599057143,17.2366337741429,0,3.77558821628571,0,0,0,1288.51345485714
134,0.00423013509281767,28.06632209125,9.526104694125,0,2.99804122425,0,0,0,1275.833370625
135,0.00415245978626858,27.9757521571429,16.6429281457143,0,5.16969286785714,0,0,0,1263.20515528571
136,0.00407502119728045,28.25625430125,16.755048885,0,6.486377644125,0,0,0,1250.487023125
137,0.00399801031296867,28.7246974928571,17.3576527157143,0,5.99701896714286,1.42857142857143,0.714285714285714,0,1237.63267528571
138,0.00392189614979744,29.25782102375,13.672060592625,0,5.996148102375,2,1,0,1224.512685625
139,0.00384800580438557,29.3136938257143,6.56546106528571,0,5.99400642385714,2,1,0,1211.25961414286
140,0.00378825155805842,28.98494462,11.971891445,0,5.13322958525,2,1,0,1198.086794375
141,0.00375813180143345,28.8787734628571,8.19691646342857,0,4.49511339085714,2,1,0,1185.028413
142,0.00375759892861159,28.6370875325,11.297723812625,0,4.497111076875,2,1,0,1172.01692275
143,0.00376758495566226,28.5823266342857,12.4130455928571,0,4.497167225,2,1,0,1159.11680628571
144,0.00375512174850857,28.64380804125,12.1211238375,0,4.497111076875,2,1,0,1146.17430225
145,0.0037602276798758,28.7204449071429,14.4290755742857,0,4.497167225,2,1,0,1133.235468
146,0.0038087645069299,28.912056835,15.60620948875,0,4.497111076875,2,1,0,1120.20043825
147,0.0038761956067012,29.1887714614286,15.0547981285714,0,4.50175752414286,2,1,0,1107.09313814286
148,0.00394359278465347,29.47806927125,14.9339312925,0,3.485328878625,2,1,0,1093.822724
149,0.00399207156241898,29.7452499742857,14.7645021357143,0,4.68629114071429,2,1,0,1080.46014757143
150,0.00396129007313091,30.009561945,14.83517317875,0,6.751727241875,2,1,0,1066.94408325
151,0.00389564633137149,30.1191733042857,3.09924730628571,0,3.44639555914286,2,1,0,1053.36007528571
152,0.003827564437565,29.957951535,12.831232897375,0,2.996908856625,2,1,0,1039.770669
153,0.00377780226808295,29.9835226785714,16.32254388,0,3.00049761842857,2,1,0,1026.25441185714
154,0.00375489098632942,30.2044126825,16.2422013425,0,4.283984704125,2,1,0,1012.650681625
155,0.00373098528554026,30.5275300557143,15.9638125985714,0,4.49766872657143,2,1,0,998.947723285714
156,0.00373526527487209,30.72776779875,5.910946492625,0,4.497111076875,2,1,0,985.0875188
157,0.0037896387285564,30.5931916842857,2.49468426285714,0,4.497167225,2,1,0,971.235911657143
158,0.00385835095802961,30.32628917125,2.969339869625,0,4.497111076875,2,1,0,957.4633062125
159,0.00392545660551772,30.0562195114286,4.33198347871429,0,4.497167225,2,1,0,943.831445671429
160,0.0039633868804662,29.769476065,2.238780450375,0,4.497111076875,2,1,0,930.301884
161,0.0039293742374415,29.4320793842857,4.11111601714286,0,4.497167225,2,1,0,916.934095628571
162,0.00386906411245262,29.02608215375,12.30414058,0,4.49528692175,2,1,0,903.7257169375
163,0.00383500663721564,28.8686976642857,7.90599604085714,0,3.77431322728571,2,1,0,890.661802085714
164,0.00387612163767519,28.52852648625,10.0789808575,0,3.000013526125,2,1,0,877.68317765
165,0.00393194354285353,28.3205636871429,12.2738878242857,0,2.99811148314286,2,1,0,864.863059857143
166,0.00394172889479024,28.30165895625,15.81750347625,0,2.998074051,2,1,0,852.0652119875
167,0.00391823135044841,28.4743371471429,15.7281985785714,0,2.99811148314286,2,1,0,839.258387528571
168,0.00388479642261232,28.6273636925,13.67254341875,0,2.998074051,2,1,0,826.3414351375
169,0.0038341450723842,28.6841161814286,14.7292249228571,0,2.99811148314286,2,1,0,813.406657542857
170,0.00378436124820599,28.77265785375,14.85582350625,0,2.998074051,2,1,0,800.4170586375
171,0.00377475039542477,28.9203517185714,14.5442328771429,0,2.99811148314286,2,1,0,787.391316671429
172,0.0038203701990368,28.88280898375,8.149178780625,0,2.998074051,2,1,0,774.303667325
173,0.00388689648065134,28.62600844,12.4251987871429,0,2.99811148314286,2,1,0,761.333664142857
174,0.00395213466967152,28.5823516025,12.70249869125,0,2.999898206375,2,1,0,748.400703325
175,0.00398011246845941,28.5716396571429,12.7295609942857,0,3.72096548128571,2,1,0,735.501380828571
176,0.00394098971049206,28.5834858475,13.01683036625,0,4.495171601875,2,1,0,722.5816035625
177,0.00391218967060748,28.59673333,12.9706228414286,0,4.497167225,2,1,0,709.6730186
178,0.00387381549784597,28.571873275,13.40598532625,0,4.497111076875,2,1,0,696.750638
179,0.00382719819411305,28.55610997,13.5602147214286,0,4.497167225,2,1,0,683.860098285714
180,0.00382486047044316,28.54174532875,13.3999957575,0,4.497111076875,2,1,0,670.9555656375
181,0.00387546032820674,28.5364925042857,13.3785455028571,0,4.497167225,2,1,0,658.076834685714
182,0.00394665943725519,28.51457699875,13.14846153625,0,4.49695218775,2,1,0,645.1801845875
183,0.00402126357945396,28.49654688,13.0089549942857,0,4.49955336042857,2,1,0,632.310656414286
184,0.00409695496794085,28.47607567375,14.09415323625,0,5.63844219925,2,1,0,619.4386062875
185,0.004172912892848,28.4742006328571,14.7728399071429,0,3.91372345185714,2,1,0,606.585996128571
186,0.00424857099527781,28.4903334075,14.70838727125,0,2.99770917975,2,1,0,593.7103013625
187,0.00432305789560696,28.5091626457143,14.68464751,0,2.99811148314286,2,1,0,580.843885885714
188,0.00439239157385117,28.58831086375,14.03894744375,0,3.002028581625,2,1,0,567.941035275
189,0.00442436619074352,28.6681351671429,13.8604520585714,0,5.24114306671429,2,1,0,555.016517785714
190,0.00442792638810902,28.7319139525,14.07729129875,0,5.556307061625,2,1,0,542.043966025
191,0.0044782403730723,28.8690673314286,14.1727566885714,0,4.49238058785714,2,1,0,529.040800171429
192,0.00452609645467766,29.02924023,14.29766619375,0,4.497111076875,2,1,0,515.9572112625
193,0.00450289071698594,29.1814993585714,14.3803045514286,0,4.497167225,2,1,0,502.815248328571
194,0.00443665390500633,29.32273262125,14.06434000875,0,4.497111076875,2,1,0,489.594541825
195,0.00436695633494898,29.4593017042857,15.5349166685714,0,4.497167225,2,1,0,476.325660342857
196,0.00430271479965758,29.636777195,15.85459191875,0,4.497111076875,2,1,0,462.9715339375
197,0.00422996358611173,29.83168054,15.1701945557143,0,4.49711787685714,2,1,0,449.5462975
198,0.00415449566865625,30.02858160375,14.706458861125,0,4.655493889625,2,1,0,436.0177657
199,0.00407883846061445,30.0559638542857,10.8844645392857,0,5.59885011428571,2,1,0,422.435190485714
200,0.00400368618508618,29.896997245,10.84005609075,0,4.499083235875,2,1,0,408.891283525
201,0.00393004795229796,29.8218053614286,13.3508917857143,0,4.497167225,2,1,0,395.4097717
202,0.00386274475684874,29.82716683375,12.93215123,0,4.497111076875,2,1,0,381.9324995125
203,0.00383244747554903,29.8688240257143,15.5085189514286,0,4.497167225,2,1,0,368.4539897
204,0.00385388861952611,30.000208715,15.4102307275,0,4.497111076875,2,1,0,354.929128925
205,0.00387775608335333,30.1333105185714,14.6900419942857,0,4.49606651042857,2,1,0,341.354808728571
206,0.00388955760526889,30.22699966,9.86751651325,0,5.084028965,2,1,0,327.7098203
207,0.00389659848727844,30.1217672257143,12.4495729514286,0,5.59197970271429,2,1,0,314.079334814286
208,0.0039099849159572,30.07963687625,12.749954145,0,4.48116791225,2,1,0,300.477543525
209,0.00395947595526307,30.0894469114286,6.72080004685714,0,2.99182921814286,2,1,0,286.890320314286
210,0.00401425772431839,29.90197021,4.55742952725,0,2.99803087125,2,1,0,273.32630925
211,0.00403278398734332,29.5490215242857,10.2218451641429,0,2.99811148314286,2,1,0,259.899611657143
212,0.00405606966461813,29.2106116375,13.4403006125,0,2.998074051,2,1,0,246.628767275
