"Time","Perspiration","Speed","Acceleration","Braking","Steering","Phase","Activity","Failure","Distance"
0,0.00461727909954361,0.00158113385714286,2.65797708442857,40.4091955342857,613.431559328571,0,0,0,-1.500290948
1,0.00457625675425104,2.15574285714286e-05,2.64661678742857,41.62108478,622.316255914286,0,0,0,-1.50026097871429
2,0.00457001524807951,0,2.6890716,41.476081285,622.100365625,0,0,0,-1.500212278625
3,0.00460785447405491,0,2.72945900014286,39.5043194814286,622.110938942857,0,0,0,-1.50024107714286
4,0.00465483463190935,0.05040641675,2.889401513375,17.809711060125,621.759986,0,0,0,-1.497868883
5,0.00470601509627429,0.440871113428571,7.78169898542857,0.024516741,553.694989542857,0,0,0,-1.40357244485714
6,0.00475816171146121,1.07261377275,14.7562345775,0,333.895749525,0,0,0,-1.0707769325
7,0.00481056441424262,2.65573382271429,20.5497185242857,0,177.609604885714,0,0,0,-0.286465133714286
8,0.00486286094546371,4.977157546125,21.53518285625,0,49.146394071375,0,0,0,1.410224202125
9,0.00491467939025911,7.287411323,23.2887926928571,0,-7.25969372071429,0,0,0,4.11615066742857
10,0.00496528175306473,9.116364023625,24.33137924125,0,-21.46430308875,0,0,0,7.774353452875
11,0.00501258458416282,11.0457199914286,25.45598542,0,-28.6909255542857,0,0,0,12.23999505
12,0.00503704200287433,13.32439283375,24.3630376075,0,-28.65756955125,0,0,0,17.710416585
13,0.00500596144199466,15.2402750628571,23.97335763,0,-16.7465053071429,0,0,0,24.1477514657143
14,0.00495719365868279,16.86715660125,25.08431120625,0,-10.66576048225,0,0,0,31.40483613625
15,0.00490557134375435,18.3685912814286,24.8339050314286,0,-5.767352154,0,0,0,39.3476249242857
16,0.00485274524140299,19.9227288125,25.243831775,0,-1.94536571925,0,0,0,48.00152738125
17,0.00479931071297536,21.4474265757143,24.7461308685714,0,1.49819415485714,0,0,0,57.3432485828571
18,0.00474549077657848,22.7509035175,24.71800304125,0,1.499375775,0,0,0,67.33821472875
19,0.00469143282532374,23.9337507314286,24.5685920471429,0,1.49905574157143,0,0,0,77.8810105385714
20,0.00463720934510623,25.116084185,24.9301796625,0,1.4990370255,0,0,0,88.9670635875
21,0.0045828823414811,26.0179235957143,23.9040354428571,0,1.49905574157143,0,0,0,100.528472057143
22,0.00452849066739461,26.693935085,22.77418177125,0,1.4990370255,0.25,0.25,0,112.4401329125
23,0.00447407323767563,27.3674198971429,23.2344236071429,0,1.49905574157143,1,1,0,124.647829771429
24,0.00441966676777937,27.93542883625,21.35840354125,0,1.4990370255,1,1,0,137.13587245
25,0.00436531372685715,28.1908453557143,8.79676650057143,0,1.49905574157143,1,1,0,149.839760885714
26,0.00431108055837108,27.9099662375,17.13689835625,0,1.4990370255,1,1,0,162.50629445
27,0.00425706561909411,27.8710212442857,18.2811868814286,0,1.49905574157143,1,1,0,175.100055285714
28,0.00420350906662686,27.89036703375,18.05397230125,0,1.4990370255,1,1,0,187.6924395375
29,0.00415100684634964,27.9483182385714,17.3875977885714,0,1.49905574157143,1,1,0,200.305028942857
30,0.00410337993235358,27.97249767625,17.0730637,0,1.4990370255,1,1,0,212.9340070625
31,0.00408637137987127,28.0106474657143,17.3339388685714,0,1.49905574157143,1,1,0,225.578761328571
32,0.00409835994894328,28.081361865,20.0967503475,0,1.4990370255,1,1,0,238.2457841125
33,0.00407770967654571,28.35537567,20.48035391,0,1.49905574157143,1,1,0,250.977655371429
34,0.00402986859827933,28.88552205125,19.76569560875,0,1.4990370255,1,1,0,263.9076739
35,0.00397875038820057,29.3241164742857,19.6305294514286,0,1.49905574157143,1,1,0,277.059378928571
36,0.00392808965933848,29.71891187125,19.50822623375,0,1.4990370255,1,1,0,290.3935131375
37,0.00388357394759611,30.0697260542857,12.9733865877143,0,1.49905574157143,1,1,0,303.902731814286
38,0.00386533079480217,29.965991175,5.940746535375,0,1.4990370255,1,1,0,317.480878825
39,0.00386918126941734,29.6511951114286,8.59925693442857,0,1.49905574157143,1,1,0,330.948213371429
40,0.0038773876484511,29.29295847,10.610911129,0,1.4990370255,1,1,0,344.2680689
41,0.0038873966151662,28.9239061785714,13.71887364,0,1.49905574157143,1,1,0,357.417423
42,0.00390994707279594,28.6961556575,14.55411891625,0,1.4990370255,1,1,0,370.4268438625
43,0.00393640325653076,28.5406244371429,15.2153684942857,0,1.49905574157143,1,1,0,383.353511242857
44,0.00397432044334709,28.4349543075,15.398939715,0,1.4990370255,1,1,0,396.2141105875
45,0.00402234909462934,28.3602121985714,15.8630955985714,0,1.49905574157143,1,1,0,409.047774385714
46,0.00407122116639148,28.28091270625,18.44423380375,0,1.4990370255,1,1,0,421.835513275
47,0.00411431955019386,28.27437539,18.3463438957143,0,1.49905574157143,1,1,0,434.612654042857
48,0.00411469148070087,28.2877458525,19.11474658875,0,1.4990370255,1,1,0,447.3817762875
49,0.00407592301328386,28.4303792885714,17.7290307742857,0,1.49905574157143,1,1,0,460.1919945
50,0.00403786773246946,28.65235686125,17.36224197875,0,1.498878136375,1,1,0,473.084214225
51,0.00400002604719805,28.8596889771429,17.5349942371429,0,1.50144187657143,1,1,0,486.074423128571
52,0.00397862497350507,29.074086805,18.0745698575,0,2.644322678625,1,1,0,499.1601468375
53,0.00398316144971001,29.2609605914286,17.8691610185714,0,2.99861298485714,1,1,0,512.343463114286
54,0.00400818700368401,29.4164649675,18.29428966625,0,2.998074051,1,1,0,525.59178825
55,0.00404748941097218,29.5808618971429,18.2611738328571,0,2.99811148314286,1,1,0,538.922025771429
56,0.00409392259211937,29.66127551625,9.4681376915,0,2.998074051,1,1,0,552.3085785375
57,0.00413500666926532,29.11469856,8.73654551414286,0,2.99811148314286,1,1,0,565.6171313
58,0.00413148265510911,28.44633712625,14.67288627125,0,2.998074051,1,1,0,578.5887593
59,0.00408743906504784,28.2452234128571,14.9622032842857,0,2.99811148314286,1,1,0,591.400013314286
60,0.00403681694371497,28.10765981125,15.09063612125,0,2.998074051,1,1,0,604.1176986875
61,0.00398463589283332,28.0030542642857,15.36502345,0,2.99811148314286,1,1,0,616.801880042857
62,0.00393181535420962,27.933178485,14.32153361875,0,2.998074051,1,1,0,629.42661295
63,0.00387880562779431,27.8884891542857,14.89950318,0,2.99811148314286,1,1,0,642.0428536
64,0.00382594272407656,27.8471802625,16.5326351,0,2.998074051,1,1,0,654.6246372
65,0.00377375087482826,27.8283336242857,18.1364805328571,0,2.99811148314286,1,1,0,667.207789342857
66,0.00372438712834896,27.8219836225,17.60979131625,0,2.998074051,1,1,0,679.7702024875
67,0.00368612899835334,27.8273540585714,17.5892710114286,0,2.99811148314286,1,1,0,692.345718214286
68,0.0036885075225717,27.82672771375,17.35472272375,0,2.998074051,1,1,0,704.904376525
69,0.00371864204026433,27.8123017971429,17.1709383142857,0,2.99811148314286,1,1,0,717.4788057
70,0.00372850935221973,27.7938420625,17.58263952125,0,2.998074051,1,1,0,730.033064075
71,0.00369893164798738,27.77721003,17.4787085442857,0,2.99811148314286,1,1,0,742.594073371429
72,0.00365319514749402,27.77455936625,17.59854029375,0,2.998074051,1,1,0,755.130429475
73,0.00362162848645208,27.8039159128571,17.2667664314286,0,2.99811148314286,1,1,0,767.694247042857
74,0.00361691007607083,27.802393985,17.20952828,0,2.998074051,1,1,0,780.24548455
75,0.00359240261225129,27.8353459585714,17.3029195042857,0,2.99844927728571,1,1,0,792.817486171429
76,0.00355181286255457,27.85563510875,17.757990575,0,3.01068666775,1,1,0,805.3889734625
77,0.0035165603715262,27.8850418471429,18.4233462457143,0,1.61914978185714,1,1,0,817.986288728571
78,0.00350605261776742,27.93599782625,17.5633528825,0,1.49819624,1,1,0,830.5841560125
79,0.00351830130297693,28.0208541185714,19.1971691214286,0,1.49905574157143,1,1,0,843.227925257143
80,0.00354556025607635,28.12527296875,18.65835393625,0,1.4990370255,1,1,0,855.9029587125
81,0.00357648316093793,28.2673715785714,18.5975571742857,0,1.49905574157143,1,1,0,868.645852428571
82,0.00359654601624178,28.47008725375,18.2507819225,0,1.50086118075,1,1,0,881.451366525
83,0.00359681335339739,28.64729625,17.5341522971429,0,2.22190973942857,1,1,0,894.364210928571
84,0.00360532447231028,28.81655099625,17.3319742325,0,2.994310421125,1,1,0,907.336159725
85,0.00364277105654733,28.9929172857143,17.3675099414286,0,2.27525748571429,1,1,0,920.406115128571
86,0.00368981513957229,29.14717181375,17.2440926625,0,1.500976500625,1,1,0,933.5325871875
87,0.00372507466635099,29.2611606157143,17.1394097257143,0,1.49905574157143,1,1,0,946.738088585714
88,0.00372025983008348,29.372766045,17.09145225,0,1.4990370255,1,1,0,959.9691400625
89,0.00370454307621072,29.46852666,17.9919334385714,0,1.49905574157143,1,1,0,973.269279071429
90,0.00370754193622201,29.55436332375,17.35818304,0,1.4990370255,1,1,0,986.5887895625
91,0.00373097213914474,29.38521932,10.1712503444286,0,1.49905574157143,1,1,0,999.935089757143
92,0.00376786222970127,28.81330983,15.19659289625,0,1.4990370255,1,1,0,1013.062160375
93,0.00381143840816509,28.4704365528571,16.2101970142857,0,1.49905574157143,1,1,0,1026.00873142857
94,0.00384771355926358,28.26172743875,17.25116329375,0,1.4990370255,1,1,0,1038.806411
95,0.00387828627260254,28.16636317,16.7564916014286,0,1.49905574157143,1,1,0,1051.55914257143
96,0.00390620575979415,28.14680959875,19.445830275,0,1.4990370255,1,1,0,1064.269481125
97,0.00392721622887589,28.2069657214286,18.9139688757143,0,1.49905574157143,1,1,0,1077.00625628571
98,0.00393015015122109,28.374676065,17.7794927225,0,1.4990370255,1,1,0,1089.775249125
99,0.00390152268450867,28.5403608485714,17.8293745928571,0,1.49905574157143,1,1,0,1102.64271971429
100,0.00385892372516323,28.68968949625,17.8973001375,0,1.4971136065,1,1,0,1115.55898675
101,0.00381683905437647,28.8160136657143,18.4118361614286,0,2.38447859728571,1,1,0,1128.56060971429
102,0.00379530281993812,28.7692279475,15.355109955,0,2.529788816875,1,1,0,1141.567754
103,0.00380295170518844,28.5051493314286,14.95581657,0,-0.000876622428571429,1,1,0,1154.519606
104,0.00381210437703767,28.279818635,14.925846435,0,0.727318469375,1,1,0,1167.337396625
105,0.00383136839081838,28.0870538185714,15.3287003671429,0,1.49841824714286,1,1,0,1180.08399085714
106,0.0038655369506192,27.90388914375,15.1750293575,0,1.4990370255,1,1,0,1192.717232125
107,0.003885829333904,27.72717341,19.2143758628571,0,1.49905574157143,1,1,0,1205.29640328571
108,0.00387437416917571,27.64726779,18.04458394625,0,1.4990370255,1,1,0,1217.789691125
109,0.00383877369259637,27.5799980714286,17.2360807328571,0,1.49905574157143,1,1,0,1230.27794957143
110,0.00379113852647847,27.53635188,16.85339894125,0,1.4990370255,0.125,0.125,0,1242.711050625
111,0.00374268883260197,27.5020620857143,16.83833311,0,1.49905574157143,0,0,0,1255.15529542857
112,0.00370260021506524,27.46683628,16.916259025,0,1.4990370255,0,0,0,1267.55916125
113,0.00368892692613299,27.4134490685714,13.3137117031429,0,1.49905574157143,0,0,0,1279.971451
114,0.00370149613897766,27.080197205,3.68448619475,0.001663048875,1.499183343,0,0,0,1292.288672625
115,0.00373976154271921,26.0766530842857,3.64721998742857,13.1743225982857,1.512312197,0,0,0,1304.34590357143
116,0.00378270233207614,23.6971151325,2.9727621465,26.40278581875,-2.569879874375,0,0,0,1315.610483
117,0.00381847667386576,20.9566663871429,2.57688372,26.4416231642857,-14.2026016728571,0,0,0,1325.69635728571
118,0.00386454176016048,18.35900828875,2.4054280515,29.65105816,-39.61066664375,0,0,0,1334.543189875
119,0.00391556339013248,15.27346753,2.17826044071429,29.0502177228571,-25.3994406681429,0,0,0,1342.06628171429
120,0.00396385382989776,13.50895195125,2.17140415675,19.09019683,-4.271757238,0,0,0,1348.307362
121,0.00398626609950077,11.7286918128571,2.19163583871429,27.3327205742857,81.0174440428571,0,0,0,1353.971025
122,0.00399072067422634,9.550159701,2.89553014475,18.99457775275,264.9578158375,0,0,0,1358.672093875
123,0.00402555330792797,9.00372989214286,3.54856505057143,2.215195299,409.765052614286,0,0,0,1362.69042628571
124,0.00407645637089023,8.711608997,12.93458538575,0.001612578,517.0345012375,0,0,0,1365.370649875
125,0.00412940086251499,8.68496719014286,18.2050683914286,0,554.925572071429,0,0,0,1365.72727842857
126,0.00418291161901917,9.41267999525,21.50240520125,0,474.0524082125,0,0,0,1363.251339
127,0.00423659232583742,10.9506374714286,20.8061047014286,0,237.012116557143,0,0,0,1358.95041457143
128,0.00429027349019181,12.186076185,20.474610685,0,77.2116118475,0,0,0,1353.864594
129,0.00434382986583762,13.3752620014286,23.3469003371429,0,13.6950732914286,0,0,0,1348.39942942857
130,0.00439711193054465,14.800775875,23.90114708375,0,-34.3273463475,0,0,0,1342.326878
131,0.00444992734139066,16.4050571128571,26.33143877,0,-65.7466723157143,0,0,0,1335.512314
132,0.00450184068118118,18.32983029375,25.84437574,0,-35.4563444,0,0,0,1327.7135215
133,0.00455187422146958,20.17856581,27.7766090814286,0,-0.934406299571429,0,0,0,1319.05217257143
134,0.00459423017514281,22.00879930875,27.0774616025,0,7.51084414725,0,0,0,1309.49414
135,0.00459254493270645,23.7784846585714,27.14826579,0,4.67478776785714,0,0,0,1299.15517314286
136,0.00454864158746513,25.42850916625,27.185514715,0,2.9997604985,0,0,0,1287.998108625
137,0.00449851476651762,27.0136662785714,26.9884799942857,0,2.99811148314286,0,0,0,1276.162349
138,0.00444652548457413,28.53173012625,20.521030586375,0,2.998074051,0,0,0,1263.5693515
139,0.00439371467650235,28.8422122942857,8.36422848842857,0,2.99811148314286,0,0,0,1250.559952
140,0.00434043262117067,28.41660836,17.2568079975,0,2.998074051,1.25,0.625,0,1237.6168725
141,0.00428689548675045,28.3586415728571,16.6703544957143,0,2.99811148314286,2,1,0,1224.81576142857
142,0.00423322405026882,28.43582501375,16.63751925875,0,2.998074051,2,1,0,1211.970671875
143,0.00417952877042429,28.5867630228571,16.9381186071429,0,2.99811148314286,2,1,0,1199.10457528571
144,0.00412592849365664,28.706069395,17.533548895,0,2.998074051,2,1,0,1186.142348
145,0.00407259296944375,28.81354759,14.6246076371429,0,2.99811148314286,2,1,0,1173.164305
146,0.0040199721972636,28.68437848,10.09435701375,0,2.998074051,2,1,0,1160.150044375
147,0.00397068867485043,28.3890098385714,10.5350765642857,0,2.99811148314286,2,1,0,1147.27012142857
148,0.00393015258350332,28.08557699375,10.780542295,0,2.998074051,2,1,0,1134.49946325
149,0.00389780953542005,27.8220469914286,10.5669734514286,0,2.99811148314286,2,1,0,1121.88524657143
150,0.00390989408877259,27.58210255875,13.2272351725,0,2.998074051,2,1,0,1109.359195875
151,0.00394860933329198,27.3942877757143,15.1291483628571,0,2.99811148314286,2,1,0,1096.96166371429
152,0.0039710536427651,27.3554361075,19.7166029675,0,2.998074051,2,1,0,1084.587956625
153,0.00396032771848074,27.6287490471429,18.58295619,0,2.99811148314286,2,1,0,1072.19581585714
154,0.00394688803284039,28.01416635,17.21487546625,0,2.998074051,2,1,0,1059.60471425
155,0.00392449790124397,28.1771429714286,14.3440613385714,0,2.99811148314286,2,1,0,1046.91748942857
156,0.00388637873603708,28.0633098825,9.855704031625,0,2.998074051,2,1,0,1034.191928
157,0.00384957076615423,27.8306389042857,10.3295121685714,0,2.99811148314286,2,1,0,1021.57339242857
158,0.00382382104207988,27.58228622,10.122983292875,0,2.998074051,2,1,0,1009.046648625
159,0.0038120795446246,27.3533435414286,10.5859252685714,0,2.99811148314286,2,1,0,996.649225014286
160,0.00378194499875869,27.10818392625,11.626776,0,2.998074051,2,1,0,984.336577525
161,0.00374073467542779,26.9067474785714,15.3192237328571,0,2.99811148314286,2,1,0,972.1479779
162,0.00370622166020778,26.912226605,18.99262742625,0,2.99823294025,2,1,0,959.992269625
163,0.00368881346406126,27.0747128414286,18.4105393828571,0,2.99572534842857,2,1,0,947.809994614286
164,0.00370802114426591,27.1960561625,18.4402955325,0,1.8529027295,2,1,0,935.5405024125
165,0.00375185793943084,27.3619781328571,19.4298937471429,0,1.74149507242857,2,1,0,923.237010671429
166,0.00379834328751274,27.6620720025,19.04070649375,0,2.996145072375,2,1,0,910.7942468125
167,0.00382919169901238,27.9175109628571,15.5102851614286,0,2.99811148314286,2,1,0,898.238456385714
168,0.00381162426395063,27.86788327625,14.77750737375,0,2.998074051,2,1,0,885.621019
169,0.00379294667641092,27.7703514114286,16.9855261514286,0,2.99811148314286,2,1,0,873.058644542857
170,0.00381070142266264,27.72191589375,18.84601445625,0,2.998074051,2,1,0,860.512740625
171,0.00384389199526881,27.7440869571429,18.4999030357143,0,2.99811148314286,2,1,0,847.9970423
172,0.00386325201019799,27.86527969875,17.7404410125,0,2.998074051,2,1,0,835.4285283875
173,0.00387529075456097,28.0513747642857,17.5230197942857,0,2.99811148314286,2,1,0,822.808105
174,0.0038973206077123,28.23361752,17.5553254175,0,2.998074051,2,1,0,810.078883525
175,0.00391256020418063,28.4040066571429,17.4813250071429,0,2.99811148314286,2,1,0,797.296783214286
176,0.00389319124446684,28.56830517875,17.3662233625,0,2.998074051,2,1,0,784.4131922625
177,0.00386184185071257,28.7185233428571,17.3613088842857,0,2.99811148314286,2,1,0,771.480665528571
178,0.00384646898767035,28.8520239425,17.52382419875,0,2.998074051,2,1,0,758.4639142625
179,0.00384945557524007,28.7864002314286,16.3574998071429,0,2.99811148314286,2,1,0,745.444713728571
180,0.00383299363248702,28.65428871875,18.4313477525,0,2.998074051,2,1,0,732.462047575
181,0.00378944889511933,28.6139430528571,19.07809611,0,2.99811148314286,2,1,0,719.542745228571
182,0.00374436475084529,28.70506192125,18.63599259,0,2.998074051,2,1,0,706.5856214
183,0.00372453575823109,28.8011935885714,18.1602033042857,0,2.99811148314286,2,1,0,693.607946714286
184,0.00372704570430388,28.9366057775,17.57873996625,0,2.998074051,2,1,0,680.5501473125
185,0.00372006511198101,29.04203523,17.4088351071429,0,2.99811148314286,2,1,0,667.463340985714
186,0.00370483865096674,29.13426192625,18.1185645375,0,2.998074051,2,1,0,654.3099412875
187,0.00370069340740299,29.2346577885714,17.8203690842857,0,2.99811148314286,2,1,0,641.133071814286
188,0.00372538651236039,29.3297985075,17.3613154025,0,2.998074051,2,1,0,627.8934297875
189,0.00377018260653221,29.2541950942857,17.2918852414286,0,2.99811148314286,2,1,0,614.666187042857
190,0.00381663578627647,29.15448877875,19.1549547275,0,2.998074051,2,1,0,601.4615829625
191,0.00384822510351506,29.1058830057143,17.9694153742857,0,2.99811148314286,2,1,0,588.309078485714
192,0.00382360043813474,29.07423844625,17.47978046375,0,2.998074051,2,1,0,575.160252525
193,0.0037785721240871,29.0610033042857,18.3543513314286,0,2.99811148314286,2,1,0,562.037037971429
194,0.00374030750477516,29.0426936025,19.94630143125,0,2.998074051,2,1,0,548.9053055
195,0.00371366553570683,29.0952282785714,18.6512847471429,0,2.99811148314286,2,1,0,535.786745742857
196,0.00369196357047404,29.18361609,17.85235088875,0,2.998074051,2,1,0,522.617435975
197,0.00366696241600592,29.2995351714286,18.0012468857143,0,2.99811148314286,2,1,0,509.4166953
198,0.00365845744170555,29.4238544375,18.29579198125,0,2.998074051,2,1,0,496.14407655
199,0.00367953702222279,29.4697416414286,15.53189275,0,2.99811148314286,2,1,0,482.844186942857
200,0.00371786009389115,29.2584176425,13.0790097325,0,2.998074051,2,1,0,469.5662794
201,0.00376693951020478,28.9639088757143,14.2072030185714,0,2.99811148314286,2,1,0,456.420253071429
202,0.00381886471724957,28.7292020825,15.71532286875,0,2.998074051,2,1,0,443.3835490875
203,0.00387093491175011,28.50609862,16.0508978642857,0,2.99811148314286,2,1,0,430.4623201
204,0.00392275986970506,28.34981141875,16.67175479625,0,2.998074051,2,1,0,417.61460025
205,0.00397485501386224,28.2542073171429,19.3460362042857,0,2.99811148314286,2,1,0,404.839177428571
206,0.00402562899932902,28.20513577875,17.838389085,0,2.998074051,2,1,0,392.0796161625
207,0.00406925202354163,28.1651443314286,16.9571305957143,0,2.99811148314286,2,1,0,379.354936714286
208,0.00407282719669102,28.14914265625,16.438185055,0,2.998074051,2,1,0,366.629227575
209,0.00408107036050234,28.1695680728571,19.1536382185714,0,2.99811148314286,2,1,0,353.915760557143
210,0.00410586578570084,28.226407835,17.92642174375,0,2.998074051,2,1,0,341.179703525
211,0.0040917627059925,28.3711603557143,18.18171447,0,2.99811148314286,2,1,0,328.404773942857
212,0.00404669258607551,28.5089161975,17.90170408375,0,2.998074051,2,1,0,315.551674475
