"Time","Perspiration","Speed","Acceleration","Braking","Steering","Phase","Activity","Failure","Distance"
0,0.00584664097974112,0.005183209,0,0,316.323743828571,0,0,0,-7.064802895
1,0.00583856434894904,6.97747142857143e-05,0,0,320.905250042857,0,0,0,-7.06466177157143
2,0.00576380409447134,0.005507147875,0,0.000446334625,320.7939234875,0,0,0,-7.064432446
3,0.00567923254128523,0.00940197771428571,0,0.0759992037142857,320.797928728571,0,0,0,-7.06452064814286
4,0.00559297031726068,0.002186202625,0,22.975468310625,320.7939234875,0,0,0,-7.064432446
5,0.00550798673431019,0.00273584971428571,0,32.1181904171429,320.797928728571,0,0,0,-7.06452064814286
6,0.00543050331827964,0.005443874,0,32.03566366,320.7939234875,0,0,0,-7.064432446
7,0.00540429655497187,0.005071204,0,32.8060104114286,320.797928728571,0,0,0,-7.06452064814286
8,0.00546914892831561,0.002560033125,0,35.59070407375,320.7944001625,0,0,0,-7.064432446
9,0.00555291705761816,0.00678827971428571,0,36.2604999857143,320.862996514286,0,0,0,-7.064523908
10,0.00564062434153079,0.0511205835,0,29.9079276775,246.3628111,0,0,0,-7.063210619625
11,0.00572961676464434,0.544718645428571,0,20.2587418628571,-96.8254480657143,0,0,0,-6.94914148671429
12,0.00581891915927533,0.8822261865,0.05887251325,9.117635278,-470.4399327875,0,0,0,-6.622458710375
13,0.00590777617556853,1.296537285,9.42229594442857,0.198901088428571,-601.825221414286,0,0,0,-6.15711343842857
14,0.0059950858590626,2.824672556875,10.96072265625,0.166228043625,-358.6652710625,0,0,0,-5.3071271125
15,0.00607831763237429,4.486269351,12.1040348957143,0,38.7290998857143,0,0,0,-3.80163388314286
16,0.00613847823064052,6.10833307775,13.7995956875,0,244.2731857,0,0,0,-1.5654859715
17,0.00610818346859756,7.99709485714286,16.3797529885714,0,169.894561242857,0,0,0,1.59299243885714
18,0.00602913205079666,9.706189904375,19.681265505,0,59.98595264375,0,0,0,5.570043773875
19,0.00594638506977429,11.77140211,18.8445505771429,0,0.922510952,0,0,0,10.3426100905714
20,0.00588499287030637,13.7481592375,18.53265194625,8.6996125e-05,-12.67454538875,0,0,0,16.07452589625
21,0.00581307945138007,15.5325816842857,18.9528985571429,0.00184101914285714,-17.5815609928571,0,0,0,22.6522841842857
22,0.00572394695451826,17.11413001375,18.98793265375,0.013059665875,-11.68750577875,0,0,0,30.0385286375
23,0.00563266562841558,18.5577344457143,19.80145265,3.35092857142857e-05,-7.22650611228571,0,0,0,38.0903560728571
24,0.00554071107224643,20.04959618875,20.0854413925,0,-1.066526795,0,0,0,46.811959205
25,0.00544853386666871,21.6269700571429,18.4765959142857,0,1.49897426842857,0,0,0,56.2262156314286
26,0.00535637811725759,22.80891224625,15.1172282975,0,1.499375775,0,0,0,66.29246668
27,0.00526448488889803,23.4937295971429,20.6209682471429,0,1.49905574157143,0,0,0,76.7481888342857
28,0.00517326231839666,24.71957204375,19.67690087625,0,1.4990370255,0,0,0,87.62656652125
29,0.00508358311036218,25.7408168714286,14.5568286185714,0,1.49900639328571,0,0,0,99.0416444771429
30,0.00500084420323908,26.360789925,18.14974741625,0,1.517068058375,0.25,0.5,0,110.8114016125
31,0.00495012957311279,27.1775807957143,11.268699337,0,3.00200761371429,1,2,0,122.901456485714
32,0.00493375708204136,27.33020711875,10.97826983475,0,1.852831578125,1,2,0,135.239016425
33,0.00492584836009193,27.5475558671429,14.8479941642857,0,1.49855424,1,2,0,147.603942357143
34,0.00490573544729295,27.99141608,11.32472465575,0,1.4990370255,1,2,0,160.168711325
35,0.00490913429541025,28.1777154371429,13.4963572528571,0,1.49905574157143,1,2,0,172.849155757143
36,0.00494787459352466,28.49425638375,11.755822308,0,1.4990370255,1,2,0,185.653646025
37,0.0049920709817016,28.6790431985714,14.1873158471429,0,1.49905574157143,1,2,0,198.570074571429
38,0.00503174152557748,29.03252883625,12.81377844875,0,1.4990370255,1,2,0,211.5973632375
39,0.00509016114346071,29.2421676771429,7.693956608,0,1.49905574157143,1,2,0,224.7796319
40,0.00513540282212575,29.0875899325,10.392980216625,0,1.4990370255,1,2,0,237.9466579375
41,0.00513464804817312,29.0107328471429,9.07106390414286,0,1.49905574157143,1,2,0,251.071814528571
42,0.00508096130119768,28.93120766,9.62532785075,0,1.4990370255,1,2,0,264.1550229125
43,0.0050001085260632,28.9115513671429,14.5638974014286,0,1.49905574157143,1,2,0,277.216273357143
44,0.00491672515604851,29.2228717975,12.6717499825,0,1.4990370255,1,2,0,290.33885545
45,0.00484540636164013,29.4157058171429,11.52630515,0,1.49905574157143,1,2,0,303.595733785714
46,0.00482985033646889,29.58477826,10.701854756625,0,1.4990370255,1,2,0,316.915211725
47,0.00483723101813833,29.6680179228571,12.6396046828571,0,1.49905574157143,1,2,0,330.304312628571
48,0.00483904308327749,29.874074155,13.253353701125,0,1.4990370255,1,2,0,343.74596135
49,0.00488758856899515,30.19824207,14.51773847,0,1.49973946042857,1,2,0,357.308946528571
50,0.00496469533728504,30.576250775,11.30490427475,0,1.939242938125,1,2,0,371.0487459375
51,0.00502678837230591,30.74385481,11.8422243312857,0,3.00294746871429,1,2,0,384.901558071429
52,0.0050063844062897,30.81112636875,9.677231851875,0,2.98020190775,1,2,0,398.8024804375
53,0.00497131792313545,30.9459478828571,12.5623292942857,0,1.49277347628571,1,2,0,412.751547071429
54,0.00497718837201779,31.14491319,8.79784265075,0,1.49899384575,1,2,0,426.772722975
55,0.00500140638356493,31.1764381157143,10.2031480594286,0,1.49905574157143,1,2,0,440.858312571429
56,0.00504168885952345,31.2376039025,11.65097442475,0,1.499151356375,1,2,0,454.944619725
57,0.00508636435536561,31.4564817228571,8.45015005985714,0,1.90271085957143,1,2,0,469.110177557143
58,0.00511784143457041,31.51023319375,11.11304881125,0,2.996145072375,1,2,0,483.3323856875
59,0.0051298337408162,31.6381047785714,9.44720538628571,0,2.99811148314286,1,2,0,497.595627142857
60,0.00511860384078217,31.70423814,10.58567912525,0,2.998074051,1,2,0,511.9007831625
61,0.00508842698483019,31.7952095185714,10.7625715182857,0,2.99589494042857,1,2,0,526.238235814286
62,0.00503828283791754,31.9182871225,7.6671659385,0,2.135155533875,1,2,0,540.633054125
63,0.0050161165397914,31.81755163,7.481149548,0,1.49700190728571,1,2,0,555.045972285714
64,0.00503245887908095,31.68143027625,12.41988239875,0,1.4990370255,1,2,0,569.36846595
65,0.00501586955279044,31.8729051771429,14.9536177442857,0,1.49895704514286,1,2,0,583.717798485714
66,0.00494876756701381,32.211062075,13.3336953375,0,1.67743824075,1,2,0,598.1812639625
67,0.00490175602943732,32.4453950171429,11.79083917,0,3.94762114242857,1,2,0,612.797174157143
68,0.00489698875938402,32.5446502925,14.65334720125,0,1.84885824625,1,2,0,627.4638783375
69,0.00488453573719866,32.8330677414286,15.01184921,0,1.49855424,1,2,0,642.224666371428
70,0.00485745204996311,33.23066765875,12.30853576875,0,1.4990370255,1,2,0,657.1422554125
71,0.00483633455608766,33.3930261842857,9.62863701157143,0,1.49905574157143,1,2,0,672.207131242857
72,0.0048271357713356,33.3622624575,12.69446288,0,1.498878136375,1,2,0,687.2736273875
73,0.00481146370044555,33.5019077614286,12.0192048028571,0,1.50365841971429,1,2,0,702.372732885714
74,0.00479076469865877,33.64225039875,11.6782956125,0,3.5054170405,1,2,0,717.533944175
75,0.00479639059526024,33.7719238942857,12.6890525271429,0,3.781458862,1,2,0,732.768612785714
76,0.00482295547635833,33.95644782625,12.41113541875,0,1.98816588025,1,2,0,748.058135325
77,0.00488174227769222,34.2259388971429,11.8799790314286,0,1.49985174214286,1,2,0,763.461492028571
78,0.00496673595438375,34.4452265125,12.44307102125,0,1.4990370255,1,2,0,778.9652135625
79,0.00505617844554308,34.6719152585714,11.5223279214286,0,1.49905574157143,1,2,0,794.582644757143
80,0.0051467958908591,34.7707997125,9.161095832,0,1.4990370255,1,2,0,810.2643427
81,0.00523766365519322,34.7082277571429,8.39247425042857,0,1.49905574157143,1,2,0,825.971177485714
82,0.00532814375124755,34.65070176375,13.04890961375,0,1.4990370255,1,2,0,841.62221155
83,0.0054172204637453,34.7101965842857,9.03239143885714,0,1.49905574157143,1,2,0,857.299024642857
84,0.00550036693690658,34.65837722375,11.11003557625,0,1.4990370255,1,2,0,872.9560851625
85,0.00554122929954172,34.6536987242857,12.71173261,0,1.49905574157143,1,2,0,888.612718114286
86,0.00552568694297222,34.707258955,11.913442975,0,1.4990370255,1,2,0,904.26905705
87,0.00556114587086961,34.7894783171429,12.5602046585714,0,1.49905574157143,1,2,0,919.978226914286
88,0.00563027421085139,34.91859357875,13.028667458625,0,1.4990370255,1,2,0,935.7140516
89,0.00569295565181838,34.9953677142857,11.6821013484286,0,1.49905574157143,1,2,0,951.522163971429
90,0.00572721918502752,34.96685935625,10.43737605125,0,1.4990370255,1,2,0,967.319464675
91,0.00570661684593887,34.8850119285714,10.3173159305714,0,1.49905574157143,1,2,0,983.107623828571
92,0.00563468965261067,34.81070672375,12.3416585225,0,1.4990370255,1,2,0,998.8385397125
93,0.00554869818794809,34.7940550928571,12.2929352328571,0,1.49973946042857,1,2,0,1014.56726314286
94,0.00545970887434476,34.81239880875,12.441718115,0,1.939242938125,1,2,0,1030.278133
95,0.00536966022216906,34.8578130171429,14.8296635985714,0,3.00289812057143,1,2,0,1046.02212171429
96,0.00527920817551589,35.10592105875,14.1299929975,0,2.998074051,1,2,0,1061.808689375
97,0.00518880379956942,35.3970167971429,14.38052204,0,2.99811148314286,1,2,0,1077.73941985714
98,0.00509890748915783,35.6613871,12.569636771875,0,2.998074051,1,2,0,1093.781568625
99,0.00501018244291433,35.7354108171429,9.38390900428571,0,2.99811148314286,1,2,0,1109.92824785714
100,0.00492451392225254,35.59992145625,6.930100785375,0,2.998074051,1,2,0,1126.03645275
101,0.00485213822383351,35.2810854257143,2.73974770514286,0,2.99811148314286,1,2,0,1142.06788385714
102,0.00483877120423437,34.67575445625,0.001149899375,0,2.998074051,1,2,0,1157.86276075
103,0.00486701210571423,33.82965019,0.121115558571429,0,2.99811148314286,1,2,0,1173.365508
104,0.00493205553139731,33.01310625875,8.88278116425,0,2.998074051,1,2,0,1188.431845
105,0.00501752549026773,32.7343561742857,9.63470140942857,0,2.99811148314286,1,2,0,1203.28188714286
106,0.00510717966360197,32.58896164,8.9552817135,0,2.998074051,1,2,0,1218.02589875
107,0.00519826036220583,32.3930275885714,1.99472680514286,0,2.99742776442857,0.857142857142857,1.71428571428571,0,1232.72045557143
108,0.00529012579665075,31.98928740375,0.001073827125,0,2.557868138875,0,0,0,1247.260475375
109,0.00538242786210104,31.5245165228571,0,0.000806902428571429,1.49426910442857,0,0,0,1261.61891785714
110,0.00547499834348605,31.0511593025,0,4.380757464375,1.4990370255,0,0,0,1275.737292
111,0.00556770273379647,30.48934777,0,23.3211753485714,1.49842137114286,0,0,0,1289.66404128571
112,0.00566044635707256,29.12058681875,0,34.661774105,0.9030036475,0,0,0,1303.171709625
113,0.005753139221565,26.4110444785714,0,39.0952786828571,-6.37544062457143,0,0,0,1315.76711128571
114,0.00584568070233089,23.30592539625,0,40.868885685,-25.35008721375,0,0,0,1326.956539875
115,0.00593796215215301,20.1334402228571,0,40.87172517,-40.8094608914286,0,0,0,1336.72343514286
116,0.00602980196953033,16.53591695625,0,45.96783436,33.830904032375,0,0,0,1344.821811
117,0.00612096186247658,11.6607951071429,0,44.94185691,210.056658128571,0,0,0,1351.142717
118,0.00621090861976288,8.466703564875,0.0047875655,33.032220345,450.510997475,0,0,0,1355.543899875
119,0.00629861370876838,7.138553237,5.67174463642857,2.15674147157143,616.408192114286,0,0,0,1358.13638642857
120,0.0063800083708419,7.037436815,18.0394086875,0.781225310375,626.0500384125,0,0,0,1358.486239625
121,0.00642478734884244,8.79894272057143,17.55803923,0.633012811142857,538.5100804,0,0,0,1356.55449014286
122,0.00637199899545473,10.94268921375,18.71521386625,0.63233029875,276.3535963375,0,0,0,1352.33237125
123,0.00628970684438045,12.8628818471429,18.6364571985714,0.274310962285714,54.4817016167143,0,0,0,1347.22777042857
124,0.00620194052183779,14.7307838,22.181738225,0.0509555675,-47.6593819975,0,0,0,1341.339541375
125,0.0061121477194095,17.0950049871429,21.6836251857143,0.001481881,-51.22232796,0,0,0,1334.37691428571
126,0.0060212759955512,19.45823047125,21.6039732425,0.000108174625,-27.57389768375,0,0,0,1326.1293995
127,0.0059298466984277,21.6787570571429,21.7015126014286,0,-8.75590593385714,0,0,0,1316.86589971429
128,0.00583813659785819,23.677264505,20.9107480775,0,1.106350362875,0,0,0,1306.571347125
129,0.00574638995122107,25.0371922071429,17.8006857071429,0,4.377998955,0,0,0,1295.55716485714
130,0.00565486957502372,26.1025083475,17.75295334,0,4.4979518625,0,0,0,1283.9692915
131,0.00556394410943063,27.1551672085714,16.7898696485714,0,4.497167225,0,0,0,1271.9483
132,0.00547447160126119,27.98922837125,15.78738814875,0,4.497111076875,0,0,0,1259.458687625
133,0.00538882718468333,28.7702139557143,17.0802154385714,0,4.49648350628571,0,0,0,1246.65562442857
134,0.00532720463220112,29.5394290625,11.58478579875,0,4.056905164375,2,2,0,1233.444487875
135,0.00535489220373745,29.7332407542857,9.49747734671429,0,2.993324846,2,2,0,1220.048681
136,0.00542151404187063,29.78602323125,11.8937465215,0,2.998074051,2,2,0,1206.598803125
137,0.00544397951081909,29.9915461942857,9.82932032642857,0,2.99811148314286,2,2,0,1193.11474728571
138,0.00537862064428606,30.14636592,10.296067237375,0,2.996201012625,2,2,0,1179.512653
139,0.00529768570495593,30.2849647571429,12.5983443257143,0,3.55783596157143,2,2,0,1165.87851957143
140,0.00522349131203458,30.4878445275,14.261059575,0,4.501127588625,2,2,0,1152.136117375
141,0.00521280316404528,30.8333910271429,15.44933047,0,4.497167225,2,2,0,1138.314109
142,0.0052793071164338,31.26090964375,13.7562934325,0,4.497111076875,2,2,0,1124.26597175
143,0.00535063077459555,31.6108527042857,14.0331073414286,0,4.497167225,2,2,0,1110.08258385714
144,0.00536535024336661,31.934018665,12.920018295,0,4.498984115375,2,2,0,1095.711056375
145,0.00529824545047832,32.1815515528571,11.63186985,0,3.93812646571429,2,2,0,1081.24414014286
146,0.00521610270099761,32.365304255,14.391514185,0,3.434263452375,2,2,0,1066.647536875
147,0.00513498023755453,32.6257168685714,14.0600286314286,0,4.50195386228571,2,2,0,1051.98988671429
148,0.00507783319690552,32.90560283,11.76050185125,0,4.49695218775,2,2,0,1037.1633235
149,0.00511126831400071,33.0675523814286,11.8030451885714,0,4.49955336042857,2,2,0,1022.27471
150,0.00518894755937347,33.1632301775,14.17010048125,0,5.644155437125,2,2,0,1007.302189
151,0.00527023137655631,33.41196177,15.2206385,0,5.19372136385714,2,2,0,992.281949185714
152,0.0053421560993053,33.7273455425,16.0374579,0,2.983373902375,2,2,0,977.1001860125
153,0.00534580328398793,34.1506067157143,15.6445795971429,0,4.37707318485714,2,2,0,961.787747085714
154,0.00527518178121699,34.59368158375,14.1581505375,0,4.4979518625,2,2,0,946.2425317375
155,0.00519757704208715,34.8511174728571,12.6994599371429,0,4.497167225,2,2,0,930.566895985714
156,0.00514839315504547,34.9694795825,12.52576055,0,4.497111076875,2,2,0,914.784854675
157,0.00512204018756568,35.0925638585714,11.3125779842857,0,4.497167225,2,2,0,898.974392471429
158,0.00512563167891312,35.12072036,12.558436465125,0,4.497111076875,2,2,0,883.097232425
159,0.00518977108304889,35.0718257414286,12.7325055614286,0,4.497167225,2,2,0,867.259838228571
160,0.00527105834476598,35.148686495,14.31875835875,0,4.497111076875,2,2,0,851.3912323875
161,0.00534934053581119,35.3008865642857,15.16616848,0,4.497167225,2,2,0,835.499732485714
162,0.00538192164414089,35.502103555,7.62396053375,0.17134037975,4.497111076875,2,2,0,819.4907053375
163,0.00532883845212968,35.0776668271429,0.0134411987142857,26.3731282751429,4.497167225,2,2,0,803.512803085714
164,0.00527560907168003,33.2999363375,0,30.11351554625,4.497111076875,2,2,0,788.047067375
165,0.005244148511091,32.0131187614286,0,2.26712416685714,4.497167225,2,2,0,773.337431585714
166,0.00525128900947324,31.338271655,0,0.3939103925,4.497111076875,2,2,0,759.030420075
167,0.00529027902962063,30.7618398471429,0.0220890687142857,0.366629214,4.497167225,2,2,0,745.004647014286
168,0.00530678151106345,30.19220376875,5.950530837,0.409983826,4.497111076875,2,2,0,731.22667905
169,0.00528247582242273,29.77304443,5.99227462457143,0.208501225,4.497167225,2,2,0,717.6980536
170,0.00524654820389083,29.2584230625,2.09426571825,0.00349894625,4.497111076875,2,2,0,704.3394952375
171,0.00520891251173269,28.5949973571429,9.52559101614286,1.09857142857143e-05,4.49826793985714,2,2,0,691.2909347
172,0.00521817034031881,28.33380913,7.43348478925,0,3.769453858125,2,2,0,678.4256782625
173,0.00528464214829718,28.0626125028571,9.01182782528571,0,2.99874897771429,2,2,0,665.698178157143
174,0.00535910219496641,27.83930694125,5.100178156875,0,2.998074051,2,2,0,653.0594384375
175,0.00538333535132669,27.31400222,7.84576536614286,0,2.99701076828571,2,2,0,640.599951585714
176,0.0053322973040922,27.07470403,11.7949322475,0,3.585106270375,2,2,0,628.3241137125
177,0.00532621690095467,27.1369008057143,11.5109394957143,0,4.49652973057143,2,2,0,616.092534042857
178,0.00536527280803912,27.26001890625,11.7621714325,0,4.497111076875,2,2,0,603.792770675
179,0.00536741605899437,27.3709375614286,10.8333319545714,0,4.497167225,2,2,0,591.458164114286
180,0.00531441904157765,27.41376687625,11.6450107025,0,4.497111076875,2,2,0,579.073930475
181,0.00525682413798394,27.5025243128571,11.4766827957143,0,4.497167225,2,2,0,566.677270957143
182,0.00526808323045269,27.59826958375,11.6580462025,0,4.497111076875,2,2,0,554.219895875
183,0.00533527745301768,27.66706966,10.7222231764286,0,4.497167225,2,2,0,541.748212771429
184,0.00541788252419654,27.65496609125,8.853748119,0,4.497111076875,2,2,0,529.2342092375
185,0.00549969070463171,27.4212588371429,5.475792977,0,4.497167225,2,2,0,516.785785057143
186,0.00555815963380991,27.06785103,10.389217864875,0,4.497111076875,2,2,0,504.4798010875
187,0.00552676430411233,27.0202431185714,11.8839864914286,0,4.497167225,2,2,0,492.274214842857
188,0.00545198281746233,27.1095004625,11.890135135,0,4.497111076875,2,2,0,480.0432442375
189,0.00537936881186891,27.2545982214286,11.7752172814286,0,4.497167225,2,2,0,467.776631528571
190,0.00536576621168789,27.416654315,11.788956145,0,4.497111076875,2,2,0,455.421459775
191,0.00543323947615611,27.5564917857143,11.3592247585714,0,4.497167225,2,2,0,443.012112457143
192,0.00551455691154623,27.68285809375,11.09857641,0,4.497111076875,2,2,0,430.5274939375
193,0.00558290267128402,27.8146163228571,11.8946084885714,0,4.497167225,2,2,0,417.9971544
194,0.00559046147289754,27.919262585,8.327386771125,0,4.495187658125,2,2,0,405.39244625
195,0.00563605630590033,27.6072981928571,1.763921078,0,5.54229412042857,2,2,0,392.827163742857
196,0.00571458006321134,27.0833693625,10.48701988275,0,5.99898426675,2,2,0,380.491482275
197,0.00577507997881375,27.0599989957143,9.52551807285714,0,5.43428194571429,2,2,0,368.273027914286
198,0.00581243720805246,27.0545196025,11.48452211375,0,3.630176047875,2,2,0,356.0410653625
199,0.00587037943327772,27.1044992714286,11.6233994185714,0,2.99600830071429,2,2,0,343.819604542857
200,0.00587240483012835,27.17504251625,9.936337685875,0,3.156571195,2,2,0,331.5548593375
201,0.00580089773441566,27.2199921257143,12.144443721,0,4.50344949042857,2,2,0,319.271905571429
202,0.00571506507863015,27.33123268875,13.75379979625,0,4.499027295125,2,2,0,306.9536889875
203,0.00562621803497145,27.6223042685714,11.8955476942857,0,3.93744274685714,2,2,0,294.549185528571
204,0.00553612863376325,27.83844755875,11.558719497125,0,2.9938986505,2,2,0,282.007989725
205,0.00544558316861147,27.89478789,10.2612822634286,0,3.00049761842857,2,2,0,269.421929285714
206,0.00535503225217149,27.85011440375,11.266496531375,0,4.283984704125,2,2,0,256.823846425
207,0.00526491054566875,27.8961675871429,9.23926452442857,0,4.49766872657143,2,2,0,244.2376208
208,0.00517591951083901,27.62796934375,1.965360634625,0,4.497905864,2,2,0,231.6641079125
209,0.00508948523148896,26.9970802771429,12.1040754115714,0,4.43280740028571,2,2,0,219.336787085714
210,0.00501294072787625,27.04987155125,11.95669128125,0,2.983621594375,2,2,0,207.13668635
211,0.00499616677188256,27.3312563628571,11.4270972845714,0,2.99775670414286,2,2,0,194.856475071429
