"Time","Perspiration","Speed","Acceleration","Braking","Steering","Phase","Activity","Failure","Distance"
0,0.00382101917013323,0.00168935185714286,6.66936023314286,0,-5.91259334271429,0,0,0,-22.84626508
1,0.00378985021785574,0.0101103477142857,6.73941137128571,0,-5.99822897257143,0,0,0,-22.8501798428571
2,0.00375358251600169,0.011181564,6.73045641425,0,-5.996148102375,0,0,0,-22.85024101875
3,0.00373593019498925,0.0107236054285714,6.71552338771429,0,-5.99622296657143,0,0,0,-22.8505335071429
4,0.00376321018024867,0.0046456255,6.72240677975,4.195580624375,-5.996148102375,0,0,0,-22.8502482125
5,0.00380154370871176,0.00433295257142857,6.58311239271429,49.7527338471429,-5.98711105028571,0,0,0,-22.8505768271429
6,0.0038415865979545,0.253090304,7.43191610925,12.0546935235,-9.465678106875,0,0,0,-22.82562549
7,0.00388166540461575,0.955419943571429,21.3380953985714,0.000508350571428571,-109.25091938,0,0,0,-22.56494038
8,0.00392024646972302,3.049842565375,20.66996933625,0,-152.14708665,0,0,0,-21.72075798875
9,0.00394999811477615,5.52454175157143,19.9944354585714,0,-66.6935339228571,0,0,0,-19.7928653828571
10,0.00393676528334665,7.470203953875,23.19919881875,0,-2.989860434625,0,0,0,-16.84577801375
11,0.00390058411016848,9.03904604685714,26.1771684585714,0,21.9363573935714,0,0,0,-13.1536587114286
12,0.00386325732483021,10.813910220875,25.92496385125,0,42.2255765475,0,0,0,-8.6897763065
13,0.00384394395006806,12.6396913471429,25.9054965371429,0,54.6960248171429,0,0,0,-3.40786415814286
14,0.00383703878457012,14.1940605925,22.76817821375,0,32.678197258375,0,0,0,2.667322940375
15,0.00380341649500633,14.8470192985714,27.6322950171429,0,-10.1632988614286,0,0,0,9.20048974871429
16,0.00376224577904347,16.504600195,33.52385534,0,-19.20662017125,0,0,0,16.1700074425
17,0.00372004831239621,19.0773951285714,30.0268594371429,0,-10.1672730778571,0,0,0,24.1969418642857
18,0.00367755186825319,20.60151148625,27.883980055,0,-0.02974698175,0,0,0,33.21251385625
19,0.00363505365993858,21.9127610528571,28.2105260585714,0,-0.00524296385714286,0,0,0,42.7981390214286
20,0.00359280410308824,23.07784059875,24.98201614625,0,1.598879865125,0,0,0,53.00060569375
21,0.00355119498935894,23.8772275271429,30.8100438414286,0,2.99667798842857,0,0,0,63.5766991242857
22,0.00351165875617065,25.3954733625,28.98738094125,0,2.997915161875,0,0,0,74.7065395125
23,0.00348524657584487,26.6073944485714,27.2858775971429,0,2.99904399614286,0,0,0,86.4587260071429
24,0.00349287568289636,27.46959611375,23.53428522875,0,2.6806820205,0,0,0,98.69070907875
25,0.00351134898369433,27.9594066557143,20.4841816514286,0,2.63416177285714,0.142857142857143,0.285714285714286,0,111.212433571429
26,0.00352070361690475,28.16275883375,17.1257713225,0,1.501806790125,1,2,0,123.89840305
27,0.00351565743731945,28.0813945671429,14.60969965,0,1.49905574157143,1,2,0,136.606120085714
28,0.00351604173835619,27.89787436125,13.95794763125,0,1.4990370255,1,2,0,149.2439923375
29,0.0035310410727994,27.6830597128571,15.1620007871429,0,1.49905574157143,1,2,0,161.796407
30,0.00353219631777748,27.47514334,14.71341965625,0,1.4990370255,1,2,0,174.254183975
31,0.00351468476972789,27.2735478085714,21.1675355142857,0,1.49905574157143,1,2,0,186.6148579
32,0.00352109723777381,27.2330029525,19.27244019625,0,1.4990370255,1,2,0,198.907619875
33,0.0035548222937223,27.2685071785714,22.3250147857143,0,1.49900639328571,1,2,0,211.209843857143
34,0.00359379411481688,27.4677387275,20.13664538125,0,1.517068058375,1,2,0,223.55995775
35,0.00363056553711393,27.7224992542857,20.5433633828571,0,3.00200761371429,1,2,0,236.016084528571
36,0.00364914467444704,27.92887278,20.60745721,0,1.852831578125,1,2,0,248.579569375
37,0.00365655712306216,27.9945834371429,18.0929562057143,0,1.49855424,1,2,0,261.209492514286
38,0.00365847846809522,27.912823455,17.15696593875,0,1.504914975,1,2,0,273.8341435
39,0.0036498054624456,27.79189288,16.68148501,0,2.69696042985714,1,2,0,286.411911814286
40,0.00363572972854322,27.6856706525,16.92893146125,0,2.55726988475,1,2,0,298.9351466875
41,0.00362809878192342,27.5878620942857,17.5220062728571,0,1.49426910442857,1,2,0,311.4166902
42,0.00362469508896859,27.50339972125,17.70582651,0,1.4990370255,1,2,0,323.8516721625
43,0.00360629821504711,27.4006549814286,18.3586855014286,0,1.49905574157143,1,2,0,336.245821657143
44,0.00357193589845615,27.29258827125,17.4743582875,0,1.4990370255,1,2,0,348.5835349875
45,0.00354554600982285,27.1886699757143,17.7433454728571,0,1.49905574157143,1,2,0,360.885738042857
46,0.00354068960444243,27.18791042625,23.6272958475,0,1.4990370255,1,2,0,373.152259625
47,0.00354642149524685,27.6120470014286,23.3211678157143,0,1.49905574157143,1,2,0,385.503333271429
48,0.00354916421928447,28.11715982125,21.81005545625,0,1.50086118075,1,2,0,398.0908586125
49,0.00353498702264622,28.4636714085714,21.2248099585714,0,2.22190973942857,1,2,0,410.8694063
50,0.00350076440016967,28.69252639625,19.921859005,0,2.996293465375,1,2,0,423.77993675
51,0.00346261857382709,28.8009455714286,17.6050146414286,0,2.99572534842857,1,2,0,436.770742585714
52,0.00343106825774532,28.7762879275,18.11511270625,0,1.7121633985,1,2,0,449.7700756625
53,0.00342776609030006,28.7080128971429,17.7816604185714,0,1.49855424,1,2,0,462.758990885714
54,0.00344317965526936,28.64361079875,17.29892859125,0,1.4990370255,1,2,0,475.7092579
55,0.00347463255975362,28.5401020271429,18.4258339042857,0,1.49905574157143,1,2,0,488.627168028571
56,0.00351435742047334,28.4678682125,17.55712676875,0,1.4990370255,1,2,0,501.497461725
57,0.00355522152422903,28.41927152,20.61774779,0,1.49905574157143,1,2,0,514.349068585714
58,0.00359592052145342,28.481705225,19.0575163625,0,1.4990370255,1,2,0,527.1860007875
59,0.0036350663966881,28.6231112328571,19.4124202285714,0,1.49905574157143,1,2,0,540.087945185714
60,0.00366296285860513,28.7428948975,19.5499269025,0,1.4990370255,1,2,0,553.039490325
61,0.0036501614991857,28.8571994985714,18.5929870128571,0,1.49905574157143,1,2,0,566.054154014286
62,0.0036176457106609,28.95202048125,18.05514000875,0,1.4990370255,1,2,0,579.1030470125
63,0.00359484111489289,29.0404784114286,18.6103316342857,0,1.49905574157143,1,2,0,592.206954671429
64,0.00359660139491364,29.107361755,18.986763375,0,1.4990370255,1,2,0,605.3323508375
65,0.00361242100321749,29.1724407685714,18.9924503557143,0,1.49905574157143,1,2,0,618.500540614286
66,0.00360610728166253,29.229853515,18.59092209625,0,1.4990370255,1,2,0,631.683602675
67,0.00357663854954309,29.2816426057143,18.2426461,0,1.49905574157143,1,2,0,644.904849285714
68,0.00356083922607989,29.34416863375,18.19150316375,0,1.4990370255,1,2,0,658.1401120875
69,0.00356739185414176,29.4878285014286,18.68239956,0,1.49905574157143,1,2,0,671.432342585714
70,0.00358234139038181,29.58356286375,19.21158466625,0,1.4990370255,1,2,0,684.767455075
71,0.00360792712388842,29.68823522,19.1135510857143,0,1.49905574157143,1,2,0,698.160246185714
72,0.00364483554662311,29.753423455,18.97882477625,0,1.4990370255,1,2,0,711.5735896125
73,0.00368059969207675,29.8194025742857,18.6724002971429,0,1.49905574157143,1,2,0,725.0387818
74,0.00369096928760346,29.87886462,18.52615856875,0,1.4990370255,1,2,0,738.5139249625
75,0.00366113437094273,29.9359328757143,18.4995095257143,0,1.49905574157143,1,2,0,752.0309386
76,0.00362306983091564,30.0310729075,18.44655618,0,1.4990370255,1,2,0,765.5670012125
77,0.00358529188582085,30.0773389871429,18.4006501271429,0,1.49905574157143,1,2,0,779.152822771429
78,0.00356106415124343,30.1558257325,18.37728441125,0,1.4990370255,1,2,0,792.7479013625
79,0.00356309038202517,30.2039264942857,18.3851843385714,0,1.49905574157143,1,2,0,806.392950485714
80,0.00356558373717792,30.26134957125,18.10005081625,0,1.4990370255,1,2,0,820.0443677875
81,0.00357095870756927,30.3380538471429,18.1252637042857,0,1.49905574157143,1,2,0,833.738727242857
82,0.00359294420554488,30.40302090625,18.14631143125,0,1.4990370255,1,2,0,847.451037525
83,0.00362870562057243,30.4542410228571,18.1003944028571,0,1.49905574157143,1,2,0,861.207775914286
84,0.00366083192231195,30.516135765,18.1162017175,0,1.4990370255,1,2,0,874.9745949
85,0.00367806537921402,30.5780525471429,18.12660137,0,1.49905574157143,1,2,0,888.783355142857
86,0.00367788765382216,30.61442854125,18.101964505,0,1.4990370255,1,2,0,902.5957135
87,0.0036675706547622,30.6619368171429,18.0874109428571,0,1.49871794742857,1,2,0,916.444169971429
88,0.00367464343972226,30.71748076375,18.0854450625,0,1.48642440925,1,2,0,930.2963467125
89,0.00367988713466154,30.70170337,18.0658720728571,0,2.87733372442857,1,2,0,944.177832214286
90,0.00365517831827865,30.7026154625,18.03965739875,0,2.558708924375,1,2,0,958.0358053125
91,0.00361728437257154,30.6847826714286,17.9951721842857,0,1.49426910442857,1,2,0,971.912240914286
92,0.00357833526689598,30.6681396825,17.96614889625,0,1.4990370255,1,2,0,985.7566680375
93,0.00354311983332666,30.6477498914286,19.5052081971429,0,1.49905574157143,1,2,0,999.615407757143
94,0.00353947557589932,30.608043645,18.79584832375,0,1.4990370255,1,2,0,1013.440880125
95,0.00356859691385049,30.53821316,18.6172216585714,0,1.49905574157143,1,2,0,1027.26279542857
96,0.00358450367454862,30.44868394625,18.68420310125,0,1.4990370255,1,2,0,1041.028468125
97,0.00357866157512291,30.3305531171429,21.1727317414286,0,1.49905574157143,1,2,0,1054.76378057143
98,0.00355971902237828,30.233261925,19.92044846625,0,1.4990370255,1,2,0,1068.423492125
99,0.00354781713088969,30.1750485428571,18.8213552785714,0,1.49905574157143,1,2,0,1082.07678885714
100,0.00356956107056759,30.118015115,19.66450741,0,1.4990370255,1,2,0,1095.679110125
101,0.00360779193042064,30.0583675114286,19.3395718014286,0,1.49905574157143,1,2,0,1109.28026842857
102,0.00364857894542488,29.9807968575,18.52039163375,0,1.4990370255,1,2,0,1122.82249775
103,0.00368963532393496,29.8920235657143,18.82218025,0,1.49905574157143,1,2,0,1136.35520128571
104,0.00372976464268808,29.7766206025,18.22580530125,0,1.4990370255,1,2,0,1149.81955825
105,0.00376511092662667,29.6917461557143,17.83912261,0,1.49905574157143,1,2,0,1163.255157
106,0.00376630414343801,29.670223375,19.69067330875,0,1.4990370255,1,2,0,1176.649103625
107,0.0037344973038273,29.6613299685714,22.3218136985714,0,1.49905574157143,1,2,0,1190.06173171429
108,0.00370006784558816,29.68424132125,21.17135074,0,1.4990370255,1,2,0,1203.447786
109,0.0036848519980658,29.7769038628571,20.69480827,0,1.49905574157143,1,2,0,1216.89113728571
110,0.00371296014217074,29.7099796275,14.71742949375,0,1.4990370255,1,2,0,1230.317818875
111,0.00374946763626959,29.3865912642857,12.6053780371429,0,1.49905574157143,0,0,0,1243.68668142857
112,0.00377215701524778,28.99184243375,13.40594869125,0,1.4990370255,0,0,0,1256.855448875
113,0.00376735303460061,28.3102469242857,10.8989004104286,0,1.49905574157143,0,0,0,1269.82806985714
114,0.0037591025586141,27.38382708375,10.578061762125,0,1.4990370255,0,0,0,1282.38452425
115,0.00376437738047877,26.50317526,8.74471660114286,0,1.498619251,0,0,0,1294.57110128571
116,0.0037887375892541,25.59676526875,8.166301114125,1.68743462575,1.658590344375,0,0,0,1306.316410875
117,0.00382286622379788,24.5841024271429,8.40750108085714,8.67930439614286,7.97455093014286,0,0,0,1317.67992842857
118,0.00386400895484343,23.62117677875,10.41210264675,0.0431300885,22.692206265,0,0,0,1328.533027375
119,0.00390661918192617,22.9319848557143,23.2347157457143,0,27.40087639,0,0,0,1339.00821385714
120,0.00394965726155995,23.1391973775,18.49963714125,6.333325e-05,-6.269307511625,0,0,0,1349.264718125
121,0.00399279228664456,23.0175582071429,7.23017550942857,1.202496153,-15.6806815171429,0,0,0,1359.62921942857
122,0.00403543035393045,22.09881599375,8.61615259775,18.968192965,-8.488298279375,0,0,0,1369.809304
123,0.00407855587226917,19.9132764328571,9.21154914242857,24.2876419185714,-4.492229014,0,0,0,1379.35999614286
124,0.00412194335168022,17.0809437175,8.342131388875,28.1016189825,-1.478533751125,0,0,0,1387.6940335
125,0.00416533174309825,13.89749895,7.67194311385714,30.8620485842857,-21.6090615888571,0,0,0,1394.73683614286
126,0.00420866816761507,10.509491650875,6.852408641875,27.2730971375,-175.727044285,0,0,0,1400.18203475
127,0.00425191297247928,8.42678473714286,7.57582355685714,12.8159604932857,-394.5285976,0,0,0,1404.220606
128,0.0042950089048447,7.47779476025,14.318709281,0.00509448675,-509.3822518625,0,0,0,1406.69630675
129,0.0043378901315718,6.75625358085714,20.8691262828571,0,-555.338127328571,0,0,0,1407.39055085714
130,0.00438042307653931,7.13791490975,26.55362497375,0,-516.788608325,0,0,0,1406.18522975
131,0.00442240278434846,8.93404969342857,30.1521559442857,0,-371.214295671429,0,0,0,1403.37181542857
132,0.00446326492457186,12.03757346,30.5290470225,0,-134.82169982875,0,0,0,1398.77832075
133,0.00450128465164387,14.8413912328571,27.9038698142857,0,-16.4807714595714,0,0,0,1392.82171242857
134,0.0045199235354409,17.1961774075,26.72715717125,0,26.37834266,0,0,0,1385.60591875
135,0.00449447564757596,18.71883847,23.1534163885714,0,31.4279101585714,0,0,0,1377.50595357143
136,0.00445556973329707,19.6547289225,20.86041509625,0,23.7276713725,0,0,0,1368.791098875
137,0.00441441416729941,20.1667042357143,21.4334937028571,0,-4.632692899,0,0,0,1359.80694571429
138,0.00437228657200326,20.79013865125,32.152349505,0,-22.69669449675,0,0,0,1350.5881095
139,0.0043296574477724,22.3719204157143,29.6084744571429,0,17.0658481008571,0,0,0,1340.910919
140,0.00428670384631156,23.67907487875,25.4056594175,0,17.07816334375,0,0,0,1330.468896
141,0.00424354458138888,24.4281943685714,22.3191088171429,0,8.61207287128572,0,0,0,1319.613412
142,0.00420023686533618,24.95123545375,21.20784130125,0,4.102157034625,0,0,0,1308.446315875
143,0.00415683013605612,25.3626781314286,21.1525699485714,0,5.08655996657143,0,0,0,1297.100813
144,0.0041133524595883,25.650940965,24.29072799125,0,3.98980327525,0,0,0,1285.561755
145,0.00406983155377381,26.3316199028571,30.6483750728571,0,3.64435352728571,0,0,0,1273.88424
146,0.00402628750305914,27.75627664875,26.6163359225,0,4.683478655875,0,0,0,1261.631666375
147,0.00398274118116171,28.7216871785714,22.7493840342857,0,4.19797487942857,0,0,0,1248.87935471429
148,0.00393921407696313,29.2767483025,20.03218447375,0,4.496512823,1.5,1.5,0,1235.75014675
149,0.00389572903940504,29.7287157928571,20.4603069728571,0,4.497167225,2,2,0,1222.44006185714
150,0.00385231947247437,30.09621560625,20.309136565,0,4.497111076875,2,2,0,1208.916991125
151,0.0038090239399894,30.4300840514286,20.0072760614286,0,4.497167225,2,2,0,1195.26410857143
152,0.0037659154926807,30.716452865,19.408374045,0,4.497111076875,2,2,0,1181.437725125
153,0.00372309755827365,30.9700925685714,21.0817807628571,0,4.497167225,2,2,0,1167.52669142857
154,0.00368082278150003,31.2100906825,20.82350287875,0,4.497111076875,2,2,0,1153.467086125
155,0.00363966572327572,31.42438482,19.7054791628571,0,4.497167225,2,2,0,1139.33640985714
156,0.00360301549912244,31.63401578625,18.77908256375,0,4.497111076875,2,2,0,1125.074082125
157,0.00359298275724341,31.8379258614286,18.2755609814286,0,4.497167225,2,2,0,1110.75592557143
158,0.00360800317701746,32.01662316125,18.37146054125,0,4.497111076875,2,2,0,1096.316184
159,0.0036161407170807,32.1710958328571,18.1518798014286,0,4.497167225,2,2,0,1081.83737557143
160,0.00363094517885935,32.32196439375,18.91569446,0,4.497111076875,2,2,0,1067.25377825
161,0.00366540351295104,32.4084023228571,17.85731324,0,4.497167225,2,2,0,1052.64750971429
162,0.00370531545243448,32.46409510375,17.2143528375,0,4.497111076875,2,2,0,1037.97719875
163,0.00374570825585204,32.50411689,17.3327292,0,4.497167225,2,2,0,1023.31467828571
164,0.00378527057024483,32.506945935,17.0446979325,0,4.499034495875,2,2,0,1008.617233875
165,0.0038208268139719,32.50723115,17.76344584,0,3.45204033,2,2,0,993.947037142857
166,0.0038261633404631,32.489029625,16.95705882375,0,2.995187506875,2,2,0,979.2577844875
167,0.00379448899331757,32.4755186242857,17.5494507057143,0,3.88252409314286,2,2,0,964.597075557143
168,0.00375923741855194,32.4294981975,16.86308273375,0,4.498074202375,2,2,0,949.922923475
169,0.00373824194618164,32.3347926028571,16.0599691142857,0,4.497167225,2,2,0,935.304580642857
170,0.00371766577131692,32.21347465125,17.306579395,0,4.497111076875,2,2,0,920.712779
171,0.00368260263957139,32.0830230357143,18.0830603385714,0,4.497167225,2,2,0,906.204553285714
172,0.00364396109551155,31.9344743325,16.95604872375,0,4.497111076875,2,2,0,891.73345025
173,0.00361311442252433,31.7526525071429,18.3410546314286,0,4.497167225,2,2,0,877.355780357143
174,0.00362149804157641,31.55043777,17.85888013,0,4.497111076875,2,2,0,863.044439125
175,0.00365084717845336,31.3476978528571,16.7955276885714,0,4.49812812285714,2,2,0,848.846191657143
176,0.00365993866964526,31.094291205,16.44600457875,0,4.186359860625,2,2,0,834.73058245
177,0.00363932148490238,30.8410401271429,18.6931579128571,0,3.00461784114286,2,2,0,820.751173471429
178,0.00360434186888373,30.6461434425,16.88830227625,0,2.99777848125,2,2,0,806.8543901875
179,0.00356595914378305,30.4421630857143,15.9982768442857,0,2.99811148314286,2,2,0,793.070160685714
180,0.00353187104124505,30.28187316875,20.0984389675,0,2.998074051,2,2,0,779.3472551875
181,0.00352966946556097,30.18626372,19.7883431314286,0,2.99811148314286,2,2,0,765.706276342857
182,0.00356337524408555,30.19063576375,18.61765584875,0,2.998074051,2,2,0,752.0623584625
183,0.00360242923928684,30.2770501585714,18.8962991385714,0,2.99811148314286,2,2,0,738.417520657143
184,0.00364237317293731,30.37593323875,20.46037172375,0,2.998074051,2,2,0,724.7052349125
185,0.00368171544167145,30.4323014028571,19.09519638,0,2.99811148314286,2,2,0,710.979165942857
186,0.00371711505101099,30.42324196625,18.43386633625,0,2.998074051,2,2,0,697.2215319375
187,0.0037251762255469,30.3977607771429,17.64637296,0,2.99811148314286,2,2,0,683.495267214286
188,0.00369283139217605,30.3541382425,20.6194866875,0,2.998245512,2,2,0,669.76671985
189,0.00365325150193251,30.4607508471429,21.7431035985714,0,2.98109300371429,2,2,0,656.0549138
190,0.0036120756214922,30.69037388,20.6176000075,0,4.4417334775,2,2,0,642.2258608
191,0.00357039252502534,30.74317247,17.2667133614286,0,4.49700441342857,2,2,0,628.358752557143
192,0.00352864435489516,30.714236365,17.29230665375,0,4.497111076875,2,2,0,614.46683115
193,0.00348722725428075,30.6557456457143,17.0924610428571,0,4.497167225,2,2,0,600.613063128571
194,0.00344690035857178,30.54480651125,15.4892424,0,4.497111076875,2,2,0,586.775762975
195,0.00341040396593086,30.2616880671429,14.23907501,0,4.49826793985714,2,2,0,573.0438436
196,0.00340221991150892,29.9808545575,16.69234077125,0,3.910078858125,2,2,0,559.4320889
197,0.00342768152220943,29.7304480957143,17.9202995542857,0,2.99874897771429,2,2,0,545.953192885714
198,0.00345595922338187,29.5631313725,19.4693734325,0,2.998074051,2,2,0,532.5536035875
199,0.0034897717879947,29.4951804771429,20.3645316742857,0,2.99811148314286,2,2,0,519.229936557143
200,0.00352732886175311,29.56526416375,18.6529092825,0,2.998074051,2,2,0,505.8894856625
201,0.00356672179928696,29.6447247128571,18.8377826542857,0,2.99811148314286,2,2,0,492.527705728571
202,0.00360066005874694,29.70191734625,18.07140594625,0,2.998074051,2,2,0,479.0235764
203,0.00360582367127344,29.7557834857143,17.84282468,0,2.99811148314286,2,2,0,465.560923971429
204,0.00359957618234785,29.8214014775,18.77598004875,0,2.996150632125,2,2,0,452.0943350625
205,0.00360862825199829,29.8898121,18.60911806,0,3.88252409314286,2,2,0,438.614894385714
206,0.00360992059799635,29.95186477625,18.2356130275,0,4.498074202375,2,2,0,425.0904510125
207,0.00358841901066099,30.0087660485714,17.9720248571429,0,4.49648350628571,2,2,0,411.5566129
208,0.00355267734565155,30.06941011375,17.82237847125,0,4.056905164375,2,2,0,397.9812606875
209,0.00351334242193564,30.1010416371429,18.0644572914286,0,2.993324846,2,2,0,384.397679171429
210,0.00347484099290061,30.15232799625,18.21011973875,0,2.998074051,2,2,0,370.781008325
211,0.00344415642378183,30.20127881,18.9345755857143,0,2.99811148314286,2,2,0,357.155689371429
212,0.00345277706188532,30.230819505,18.5798867175,0,2.998074051,2,2,0,343.495778075
