"Time","Perspiration","Speed","Acceleration","Braking","Steering","Phase","Activity","Failure","Distance"
0,0.00419517042855635,9.41187142857143e-05,2.97757675585714,32.76658894,1.47814833585714,0,0,0,-1.90313341028571
1,0.00418899561404858,0.00415518871428571,3.01342180985714,33.1460119757143,1.49955724314286,0,0,0,-1.903293881
2,0.00413927956217272,0.006809331625,3.017237280875,33.25371343125,1.498937762125,0,0,0,-1.898870965
3,0.00409291181474917,0.00626897914285714,3.01690170871429,33.4281272557143,3.26703663485714,0,0,0,-1.89390156614286
4,0.00411834637708899,0.003336796875,2.948693049125,33.6636134025,4.491908120375,0,0,0,-1.9032821995
5,0.00417784099240024,0.189620243714286,3.54081057514286,10.0232663221429,15.2579949931429,0,0,0,-1.88518055028571
6,0.00423338385322415,0.976769051,7.33890283925,0.004449843625,48.2501673275,0,0,0,-1.6342078665
7,0.00423488529148119,1.71633606185714,14.1749116771429,0,55.6791990914286,0,0,0,-1.05731031242857
8,0.00417515106534566,3.061427856875,20.5592853925,0,54.04906748375,0,0,0,-0.04561407575
9,0.00410610973752048,5.26163145585714,22.9768323571429,0,41.7509668885714,0,0,0,1.72389245485714
10,0.00403464570947379,7.898792945375,24.0023022775,0,30.117131815,0,0,0,4.647803981375
11,0.00396219507774453,10.1112284397143,25.4905944042857,0,31.9469878485714,0,0,0,8.631445881
12,0.00388921569719423,12.41116079625,26.00759661,0,40.603999795,0,0,0,13.6423767125
13,0.00381597365486127,14.8076242442857,25.7059601628571,0,32.9273299,0,0,0,19.7395966314286
14,0.00374261608388322,16.95552155875,26.26859011375,0,16.30745299625,0,0,0,26.91371447
15,0.00366926903422037,18.86229231,25.6976824928571,0,10.4879535371429,0,0,0,34.9847079242857
16,0.00359606105784145,20.6508895025,25.67352719625,0,5.74200662725,0,0,0,43.9059587125
17,0.00352314302941509,22.3239833014286,24.8092846285714,0,2.99610098457143,0,0,0,53.6044013357143
18,0.00345079286493002,23.7859017275,24.92416054625,0,4.430152643875,0,0,0,64.03125961625
19,0.00337949093555984,25.1739694014286,24.5434066,0,4.49230129957143,0,0,0,75.08610388
20,0.0033108018809698,26.21059299875,22.10704964625,0,4.497226786375,0,0,0,86.72416283625
21,0.00325370937488079,26.6900248714286,18.0167355814286,0,4.492564547,0,0,0,98.6898902142857
22,0.00325521571788923,26.96182862375,19.3006391225,0,2.488906906875,0.25,0.25,0,110.7899417
23,0.00328648989555234,27.4953454271429,19.1112442314286,0,1.49650040585714,1,1,0,123.080461185714
24,0.00332790517604883,28.00005973625,18.4010697675,0,1.4990370255,1,1,0,135.624682875
25,0.00338880871719119,28.2127712,18.1177367171429,0,1.49905574157143,1,1,0,148.332797842857
26,0.00345731011354151,28.34373710875,18.64780945625,0,1.498242238375,1,1,0,161.104125725
27,0.00352642099777358,28.6299465871429,17.75025696,0,1.56341556657143,1,1,0,173.968590971429
28,0.00359486946222631,28.9532123425,17.64649955125,0,3.012526507875,1,1,0,186.9750592375
29,0.00365906640392399,29.2818388571429,19.0585497242857,0,2.998416914,1,1,0,200.1304557
30,0.00369132555233677,29.63358249625,20.27498324375,0,2.998074051,1,1,0,213.4321295375
31,0.00365189644153497,30.0378405471429,18.5515388771429,0,2.99811148314286,1,1,0,226.905776871429
32,0.00358713492630446,30.42191578125,18.490238645,0,2.998074051,1,1,0,240.5610092
33,0.00351918406682704,30.6174995485714,14.9229336914286,0,2.99811148314286,1,1,0,254.351134814286
34,0.00345149083557238,30.56719907625,15.41806744875,0,2.998074051,1,1,0,268.1768005
35,0.00338859910150026,30.5628534314286,15.3324765814286,0,2.99811148314286,1,1,0,281.981701271429
36,0.00336571543815688,30.64448724,15.6012326475,0,2.998074051,1,1,0,295.80213005
37,0.00340682319893218,30.7602426457143,18.2183360442857,0,2.99811148314286,1,1,0,309.6680315
38,0.00346818354457332,30.90819871875,18.81774687375,0,2.998074051,1,1,0,323.5881585625
39,0.00352586612653547,31.0706792871429,14.6846105371429,0,2.99811148314286,1,1,0,337.585856885714
40,0.0035479863763007,31.12292760375,14.04360735,0,2.998074051,1,1,0,351.630645825
41,0.00355753924012245,31.11473991,13.3377317142857,0,2.99811148314286,1,1,0,365.692490242857
42,0.00354485131416678,31.10345597625,13.60840258,0,2.998074051,1,1,0,379.742470775
43,0.00349215393065534,31.0977194371429,14.3192439785714,0,2.99811148314286,1,1,0,393.794110728571
44,0.00343003707869261,31.058580265,14.620860445,0,2.998074051,1,1,0,407.824669325
45,0.00338847030562784,31.0765182357143,14.7448022357143,0,2.99811148314286,1,1,0,421.860058342857
46,0.00341170903483903,31.1238525775,14.3860235625,0,2.998074051,1,1,0,435.8990900875
47,0.00347085416444072,31.1565821542857,14.1364352014286,0,2.99811148314286,1,1,0,449.968108742857
48,0.00353666420971211,31.2068649225,18.82967844,0,2.998074051,1,1,0,464.049240675
49,0.00360079160264932,31.4067974228571,18.4574684114286,0,2.99811148314286,1,1,0,478.185772371429
50,0.00364426284044289,31.5548139375,12.856710415,0,2.998074051,1,1,0,492.413548225
51,0.00361364726074034,31.4730198,9.34861186128571,0,2.99811148314286,1,1,0,506.655670142857
52,0.00354898101043743,31.228287335,5.6399782925,0,2.998074051,1,1,0,520.81675455
53,0.00348002037753658,30.8949620557143,4.879037328,0,2.99811148314286,1,1,0,534.853952114286
54,0.00341046455888179,30.57499145125,6.3055253295,0,2.992196101875,1,1,0,548.7309746875
55,0.00334585471591464,30.24065235,9.18368302014286,0,1.79952307628571,1,1,0,562.473640042857
56,0.00330249662014362,29.94260814,15.9014249825,0,1.49931750125,1,1,0,576.055274675
57,0.00326719183201413,29.8759319142857,18.8015354014286,0,1.499287061,1,1,0,589.557219114286
58,0.00324620923314753,30.0307924125,17.6713339775,0,4.783583833625,1,1,0,603.074589775
59,0.00323989264433124,30.3084455028571,16.8440243485714,0,4.49109196242857,1,1,0,616.700853228571
60,0.00323441973051252,30.5905039525,16.84554755375,0,4.49899131625,1,1,0,630.4466979625
61,0.00321039927614979,30.8556010571429,17.20065407,0,3.61275461571429,1,1,0,644.322781071429
62,0.00316397001000384,31.0761325625,17.9514858725,0,2.9971109255,1,1,0,658.2999095
63,0.00312117334484726,31.3074546014286,17.7835413557143,0,2.99777368914286,1,1,0,672.390236728571
64,0.00309451637622761,31.4901205325,16.7667470375,0,2.985461434875,1,1,0,686.5656334375
65,0.00307530163878506,31.6646319857143,16.7886173442857,0,4.37707318485714,1,1,0,700.834067585714
66,0.00305665540023357,31.7995631875,16.31420396875,0,4.4979518625,1,1,0,715.16006895
67,0.00304363079695035,31.8821988057143,14.5936957457143,0,4.50175752414286,1,1,0,729.552074357143
68,0.00303048184187906,31.919710125,14.33630029625,0,3.48526343075,1,1,0,743.9499546875
69,0.00300941690155713,31.9647474157143,14.4329313214286,0,2.99890748371429,1,1,0,758.384689414286
70,0.00300287777577722,32.00587574625,14.7205849175,0,2.998074051,1,1,0,772.827061625
71,0.00302331032425014,32.02820098,15.1552573085714,0,2.99811148314286,1,1,0,787.295444485714
72,0.00305221781616104,32.05531619375,14.88175476,0,2.998074051,1,1,0,801.7601629
73,0.00306522255809621,32.0507083,15.13477062,0,2.99811148314286,1,1,0,816.244216428571
74,0.00305989713687105,32.069672385,14.7858765625,0,2.998074051,1,1,0,830.7165837875
75,0.00306061890417474,32.0784891828571,14.5922647457143,0,2.99811148314286,1,1,0,845.212987642857
76,0.00304944713770545,32.07575288375,14.2292345875,0,2.998074051,1,1,0,859.6922544125
77,0.0030179674022519,32.0721613214286,14.2755168785714,0,2.99811148314286,1,1,0,874.1909341
78,0.00299321452632101,32.09386866,13.957868735,0,2.998074051,1,1,0,888.673947325
79,0.00298832475136891,32.0790313685714,14.0611369742857,0,2.99811148314286,1,1,0,903.178529957143
80,0.00299232015106187,31.9521845775,8.88991921,0,2.998074051,1,1,0,917.6410768625
81,0.00300869825773967,31.64207599,9.08839932871429,0,2.99811148314286,1,1,0,932.020226114286
82,0.0030473037234105,31.2390415275,9.23864989925,0,2.998074051,1,1,0,946.210266325
83,0.00308855999072488,30.8587460242857,9.32167531342857,0,2.99811148314286,1,1,0,960.248406128571
84,0.00310378078759715,30.481042045,9.022131712375,0,2.998074051,1,1,0,974.0931691
85,0.00308857822924939,30.1271260114286,12.8781085845714,0,2.99811148314286,1,1,0,987.795178571429
86,0.00304004045002764,29.86562868625,14.18596485375,0,2.998074051,1,1,0,1001.3281887875
87,0.00299495630635373,29.7309446128571,14.53094946,0,2.99811148314286,1,1,0,1014.80204757143
88,0.00297797552208069,29.61954687,14.6228361075,0,2.998074051,1,1,0,1028.191152125
89,0.00297455719271965,29.5820843842857,14.5691330485714,0,2.99811148314286,1,1,0,1041.57625671429
90,0.00296946747382887,29.565734755,14.13678351125,0,2.998074051,1,1,0,1054.917705375
91,0.00294298228510834,29.5258255885714,13.5684400114286,0,2.99811148314286,1,1,0,1068.27740742857
92,0.0028866178297024,29.46700665875,13.4072937475,0,2.998074051,1,1,0,1081.588582
93,0.00282029948021704,29.4175320828571,13.5136075557143,0,2.99811148314286,1,1,0,1094.89802871429
94,0.00275580591134652,29.36342917125,13.3612491825,0,2.998074051,1,1,0,1108.159908375
95,0.00271202656889662,29.2995868942857,13.2475891071429,0,2.99811148314286,1,1,0,1121.42017685714
96,0.00272468941275565,29.2444696975,13.21934076375,0,2.998074051,1,1,0,1134.625841625
97,0.00277869943926305,29.1721954471429,13.2066337228571,0,2.99811148314286,1,1,0,1147.83287814286
98,0.00284699221798112,29.07796763625,13.389785445,0,2.998074051,1,1,0,1160.970576375
99,0.00291783695996622,29.0129024328571,13.3195786242857,0,2.99811148314286,1,1,0,1174.10158957143
100,0.00298947862692527,28.94570223875,13.77222683625,0,2.998074051,1,1,0,1187.175830125
101,0.00306093767506891,28.8581896314286,13.9152338128571,0,2.99811148314286,1,1,0,1200.245489
102,0.00312990735937998,28.7363992725,11.8385747775,0,2.998074051,1,1,0,1213.24221325
103,0.00317819877679159,28.5511767128571,11.88533674,0,2.99811148314286,1,1,0,1226.19709614286
104,0.00319583482889675,28.22647446,6.80401283425,0,2.998074051,0.375,0.375,0,1239.013806125
105,0.00322605190739802,27.7158448942857,5.01534768357143,0.009671652,2.99811148314286,0,0,0,1251.66573342857
106,0.00326516549699198,27.16080677125,4.69770946125,4.542629350125,2.998074051,0,0,0,1264.041337125
107,0.00330409097469237,26.5336464871429,4.61282803242857,9.27662640614286,2.99777368914286,0,0,0,1276.18463628571
108,0.00335207371135896,25.58548557375,4.4585584595,16.9305276775,2.985362171125,0,0,0,1287.95479375
109,0.00341535431440602,24.27168912,4.32522618214286,18.7578516285714,6.14505407785714,0,0,0,1299.24176657143
110,0.00348436208353685,22.6724602875,4.512386370875,21.6412991675,7.49474435775,0,0,0,1309.835676875
111,0.00354370482206819,20.8158074328571,4.12107571214286,21.7430261628571,7.48536928614286,0,0,0,1319.68774742857
112,0.00356476404520148,18.9134894425,3.904219291625,21.63299089625,12.53319865575,0,0,0,1328.627928125
113,0.00355974473621345,17.1165505914286,3.88637835128571,20.1630939114286,14.9984585557143,0,0,0,1336.769943
114,0.00357921361061618,16.0815905125,3.912016359375,14.82539335,14.2456310325,0,0,0,1344.18274175
115,0.00364024706723088,15.2389214071429,3.85371277071429,19.42268075,7.60316405671429,0,0,0,1351.26724185714
116,0.00371143785974583,13.623270295,3.6909810545,21.12751286125,-17.0951825755,0,0,0,1357.733912625
117,0.00378426913313351,11.7139128985714,3.71392489014286,23.24685906,-100.501811758571,0,0,0,1363.48019014286
118,0.00385771260971968,9.561174506,3.584338900375,22.50578783875,-191.1728686125,0,0,0,1368.211094
119,0.00393139369616884,7.304522081,3.54577025485714,21.9038978014286,-302.014034357143,0,0,0,1371.79586914286
120,0.00400514821915144,5.925453656625,5.08338699425,2.49493074775,-425.88024525,0,0,0,1374.0179365
121,0.00407886123262019,5.12939392671429,9.008464971,0.000620094857142857,-522.133389928571,0,0,0,1375.22387085714
122,0.00415242654401262,4.639163547625,14.79431905875,0,-548.2883443625,0,0,0,1375.315655625
123,0.00422573352812545,4.93523550028571,15.3083228142857,0,-550.177652642857,0,0,0,1374.56572271429
124,0.00429858735700596,5.484832651,15.65336621375,0,-525.508120875,0,0,0,1372.8816635
125,0.00437068196175398,6.42156752671429,20.0023351685714,0,-365.329508157143,0,0,0,1370.43801471429
126,0.0044410634252832,7.58400532775,19.8910606875,0,-167.1142069425,0,0,0,1367.35284825
127,0.00450431082695413,8.84776802971429,21.1848392571429,0,-20.5771858108571,0,0,0,1363.83088814286
128,0.00453651066801715,10.5871191575,19.71256954625,0,15.812732086875,0,0,0,1359.591321
129,0.00456660000648539,12.2699499114286,19.6240683985714,0,28.3933138614286,0,0,0,1354.61300971429
130,0.00455039608672449,13.68505112,20.5947536,0,30.25432819125,0,0,0,1348.868805375
131,0.00448933186214062,14.8739416771429,20.30677277,0,35.4495581028571,0,0,0,1342.56577014286
132,0.00441998459524551,15.98026810375,20.61671866625,0,36.2447725675,0,0,0,1335.643837875
133,0.00434856409269049,17.0251967342857,23.2200091428571,0,25.9911753328571,0,0,0,1328.24775642857
134,0.00427610497806216,18.2709713875,24.251301855,0,17.7364475975,0,0,0,1320.284009875
135,0.00420307281879471,19.7032567185714,22.6058990857143,0,5.96052170357143,0,0,0,1311.74231128571
136,0.00412966014844949,21.1090104375,24.2685129575,0,4.491471808125,0,0,0,1302.50531
137,0.00405600771901449,22.5006309428571,23.3970059214286,0,4.09020996285714,0,0,0,1292.68236171429
138,0.00398219032985551,23.82257781875,23.98889495125,0,4.901724687125,0,0,0,1282.191441625
139,0.00390827585362757,25.1180520628571,22.8804018542857,0,7.493366225,0,0,0,1271.15701085714
140,0.0038343117891864,26.35865720625,22.1708131875,0,7.493246641875,0,0,0,1259.501409625
141,0.00376034600911107,27.5420801,21.9923605285714,0,6.367668878,0,0,0,1247.348798
142,0.00368642808414629,28.64191632625,23.26324952875,0,5.08801175,1.75,0.875,0,1234.633669375
143,0.00361261152652938,29.5366284142857,22.7043007385714,0,5.99558547228571,2,1,0,1221.50977828571
144,0.00353897794198282,30.34260321625,22.07447451875,0,5.996148102375,2,1,0,1207.969397375
145,0.00346562773478723,30.87596813,8.16685677057143,0,5.99622296657143,2,1,0,1194.13413514286
146,0.00339276418977288,30.676013855,4.985645618,0,5.996148102375,2,1,0,1180.21036425
147,0.00332071479241775,30.4327406814286,6.26428921671429,0,5.99622296657143,2,1,0,1166.42493842857
148,0.0032504065061379,30.18148799125,8.699360101875,0,5.996148102375,2,1,0,1152.721372875
149,0.00318487727389358,29.9012830042857,9.34024265742857,0,5.99622296657143,2,1,0,1139.16664742857
150,0.00315430325408791,29.612987825,10.861890374,0,5.9980715215,2,1,0,1125.71154975
151,0.00319712162498703,29.2368775142857,12.6043433385714,0,5.11181035728571,2,1,0,1112.42967742857
152,0.00325729139244,28.9873728325,18.17423812125,0,4.496147951625,2,1,0,1099.276559875
153,0.00329411318680223,29.0854225157143,23.3882359271429,0,4.497167225,2,1,0,1086.195329
154,0.00328726048363108,29.7478501375,23.54133943625,0,4.497111076875,2,1,0,1072.9039965
155,0.00330061537699429,30.55728241,23.0081638271429,0,4.497167225,2,1,0,1059.30302942857
156,0.00335613018700611,31.33986789125,22.69911263,0,4.497111076875,2,1,0,1045.304320875
157,0.00341784475711308,32.0789751557143,21.3473563357143,0,4.49257692614286,2,1,0,1031.000593
158,0.00344254721168818,32.77610416875,21.65567244875,0,5.508958723,2,1,0,1016.335965
159,0.00340329900973218,33.4360778842857,21.6897276828571,0,5.99542696628571,2,1,0,1001.40395474286
160,0.00339985434591645,33.746601225,7.8107280545,0,5.9963069915,2,1,0,986.19215275
161,0.00345537894619844,33.4268743157143,4.22279746471429,0,5.99383683171429,2,1,0,971.020667828571
162,0.00351677518635266,33.05113041625,4.6722975985,0,4.710237449875,2,1,0,956.0004982625
163,0.00354893037241753,32.7039605885714,4.44324879371429,0,4.49666572371429,2,1,0,941.157103414286
164,0.00351388137835281,32.31127692625,4.13611938675,0,4.497111076875,2,1,0,926.4589599375
165,0.00345703314359365,31.9210558,4.55842624057143,0,4.497167225,2,1,0,911.958137471429
166,0.00340273393716415,31.5583142975,6.88968609725,0,4.497111076875,2,1,0,897.610234025
167,0.00336648037282748,31.1728863985714,12.2423509581429,0,4.497167225,2,1,0,883.4538333
168,0.00337468050395191,30.921093765,13.394813636625,0,4.497225408,2,1,0,869.4212005375
169,0.00342969930755889,30.7134824457143,5.371829121,0,4.74010805728571,2,1,0,855.508335842857
170,0.00349585573685501,30.3384761725,4.641278225375,0,5.9942191235,2,1,0,841.7096163375
171,0.00356150966411998,29.9549127871429,4.89052529157143,0,5.99400642385714,2,1,0,828.099415414286
172,0.00361154864871326,29.58165586875,5.15344010675,0,5.13322958525,2,1,0,814.6479229875
173,0.00359173172570704,29.0874007914286,13.6828710587143,0,4.49511339085714,2,1,0,801.401970542857
174,0.00353747001457066,28.84425187875,17.2307300825,0,4.497111076875,2,1,0,788.33059485
175,0.00351810672036151,28.8379598014286,19.22454053,0,4.497167225,2,1,0,775.316768328571
176,0.00356426765200147,28.9748695,18.04669361,0,4.497111076875,2,1,0,762.2567543125
177,0.0036207554511725,29.2197408957143,17.8890224157143,0,4.497167225,2,1,0,749.125226714286
178,0.00363179212749611,29.4691077975,17.422046955,0,4.497111076875,2,1,0,735.8621434125
179,0.00357655841372226,29.6993143228571,16.72797055,0,4.49510561242857,2,1,0,722.514591557143
180,0.0035083888665156,29.91065366125,16.618912495,0,5.394894512125,2,1,0,709.0366734125
181,0.0034378308459376,30.1056354014286,18.3290768,0,7.48750048557143,2,1,0,695.495472642857
182,0.00336641494041701,30.32519997875,18.543630955,0,6.89677764175,2,1,0,681.8386715625
183,0.00329482290472015,30.52048814,18.2030159914286,0,4.48609832242857,2,1,0,668.110551314286
184,0.00322353727349833,30.73067886625,17.9656785375,0,4.49706789725,2,1,0,654.2656222875
185,0.00315316429641567,30.9213232614286,17.7907210085714,0,4.497167225,2,1,0,640.355196828571
186,0.00308529238076266,31.11408987875,17.64302613625,0,4.497111076875,2,1,0,626.334182375
187,0.00302817385062145,31.2722563785714,17.9460971242857,0,4.497167225,2,1,0,612.257147528571
188,0.00302585529430561,31.3707308475,17.7682054125,0,4.497111076875,2,1,0,598.098882275
189,0.00307217961215385,31.4824816528571,18.5816830228571,0,4.497167225,2,1,0,583.911609342857
190,0.00313795378796315,31.5474879075,14.969713485,0,4.497111076875,2,1,0,569.6650670625
191,0.00320789250592693,31.4597398628571,13.7591789385714,0,4.497167225,2,1,0,555.436430871429
192,0.00327900452815562,31.22038748875,7.244344821375,0,4.497111076875,2,1,0,541.2679723375
193,0.00335031608474108,30.8255411314286,7.08174817985714,0,4.497167225,2,1,0,527.2562165
194,0.00342095541084679,30.40688247625,7.835569795875,0,4.498935232125,2,1,0,513.4169246875
195,0.00348902264104886,29.9965701685714,7.06407546642857,0,5.220021223,2,1,0,499.775566314286
196,0.00353925592628219,29.603826415,7.981903376875,0,5.9942086275,2,1,0,486.3065521125
197,0.00351806182953875,29.0927422557143,14.6466014042857,0,5.99622296657143,2,1,0,473.045134428571
198,0.00346451691922776,28.77666790375,14.97723824625,0,5.996148102375,2,1,0,459.9781604375
199,0.00344382368029317,28.5912283642857,18.6230893,0,5.99622296657143,2,1,0,447.031214085714
200,0.00349619555012873,28.5408858075,19.05634817625,0,5.996148102375,2,1,0,434.1249851
201,0.00356414688615422,28.6726342685714,19.1181430814286,0,5.99622296657143,2,1,0,421.211068185714
202,0.00363460339899977,28.84302562875,18.02725516,0,5.996148102375,2,1,0,408.2145763375
203,0.00370533237368518,29.0018419442857,18.3142850028571,0,5.99622296657143,2,1,0,395.154955457143
204,0.00377477706022066,29.1067367775,18.1056084875,0,5.996148102375,2,1,0,382.0259065
205,0.00383848489260305,29.2297320557143,17.83734816,0,5.99622296657143,2,1,0,368.852374042857
206,0.003855457982099,29.3931848175,17.74123306875,0,5.996148102375,2,1,0,355.608415275
207,0.00380900536295955,29.5472894714286,17.5643016028571,0,5.99622296657143,2,1,0,342.307453885714
208,0.00378086968320992,29.69187928,18.1734877275,0,5.996148102375,2,1,0,328.9226320375
209,0.00381355522561668,29.8074999457143,16.6400238385714,0,5.99622296657143,2,1,0,315.489888357143
210,0.00383696463274008,29.88380872125,17.62660545875,0,5.996148102375,2,1,0,302.002314575
211,0.00383526191584851,29.8930044028571,17.4950893557143,0,5.99622296657143,2,1,0,288.502906471429
