"Time","Perspiration","Speed","Acceleration","Braking","Steering","Phase","Activity","Failure","Distance"
0,0.00492057472611243,0,2.30585403357143,16.1101276557143,-11.8251866828571,0,0,0,-10.09897339
1,0.00492546076171001,0,2.34492823257143,16.2335956514286,-11.9964579442857,0,0,0,-10.0987716571429
2,0.00487346097324768,1.56375e-20,2.33301868275,16.2175412625,-11.99229620375,0,0,0,-10.09844384125
3,0.00481473612661791,0.00119836071428571,2.34906977214286,16.2202577357143,-11.9924459314286,0,0,0,-10.0985699242857
4,0.00479810983058625,7.15125e-20,2.351545705125,16.25196066625,-11.9916157475,0,0,0,-10.09844384125
5,0.00484106602738752,0,2.477566446,16.2346970271429,-12.2883018342857,0,0,0,-10.0985699242857
6,0.00490230866005928,0,2.645746427625,16.155387425,-20.7051784775,0,0,0,-10.0984654325
7,0.00497753775950677,0.127249017428571,2.62533908585714,7.62905971485714,-96.3222038585714,0,0,0,-10.0893802157143
8,0.00505667423663514,0.83124103725,4.4125961495,0.022344879375,-202.55799685,0,0,0,-9.88274011925
9,0.00513142649930576,1.74183023228571,19.1718744885714,0,-225.8684315,0,0,0,-9.33458259971429
10,0.00518237420036171,3.955020222875,17.5367848125,0,-126.70774612875,0,0,0,-8.064640499125
11,0.00516639110765357,6.01819766742857,20.9160912114286,0,-10.8052055211429,0,0,0,-5.82030930057143
12,0.00510648639425693,7.906618550125,23.91681443125,0,58.153681292375,0,0,0,-2.670691246
13,0.00505578926679073,9.89977682242857,25.04985862,0,86.9187590557143,0,0,0,1.32231656528571
14,0.00502581054075908,12.3716511425,24.7068675925,0,17.23837795225,0,0,0,6.366336545375
15,0.00498115590008031,14.5418176657143,25.3218648485714,0,-14.2450625795714,0,0,0,12.4183701218571
16,0.00491004968039208,16.4193657875,25.43565856,0,-18.113713425,0,0,0,19.39749471
17,0.00483066872494923,18.2853730057143,28.8631929142857,0,-7.58942986257143,0,0,0,27.2199168871429
18,0.0047578242205857,20.737684565,33.37938134875,0,-2.450508663125,0,0,0,36.00250651125
19,0.00470781547361282,23.69625539,30.5245052428571,0,0.410106820857143,0,0,0,46.0373610657143
20,0.00468175188972553,25.8883012775,27.814058365,0,1.49619755,0,0,0,57.2871486725
21,0.00466049052617888,27.2995986071429,23.0261753042857,0,1.56580170171429,0,0,0,69.3316599314286
22,0.00463311626417692,27.995627945,23.66265639375,0,4.298437160875,0,0,0,81.8315616775
23,0.00460876415832075,28.7564162085714,24.7845861385714,0,4.49831195142857,0,0,0,94.6396994042857
24,0.00460943690679966,29.51752947,21.11260164125,0,4.5105184805,0,0,0,107.8136320625
25,0.00463920309919445,29.8297724557143,17.2267158828571,0,3.05384569871429,1,3,0,121.233059628571
26,0.00466944505713419,29.90766785625,16.752827865,0,1.48374378325,1,3,0,134.724110125
27,0.00468377720339702,29.9562886557143,15.98815862,0,1.49875031085714,1,3,0,148.244998614286
28,0.00468360405146848,29.933353055,14.68821620125,0,1.4990370255,1,3,0,161.7700197625
29,0.00468172668790581,29.90722253,15.21767741,0,1.49905574157143,1,3,0,175.290066614286
30,0.00467236607400387,29.82580827125,14.67597375,0,1.4990370255,1,3,0,188.780347775
31,0.0046534800301945,29.66127659,11.30925003,0,1.49905574157143,1,3,0,202.221802285714
32,0.00464606546065772,29.2791168475,7.50962604625,0,1.4990370255,1,3,0,215.5439341875
33,0.00467596322849204,28.51745103,7.843169247,0,1.49905574157143,1,3,0,228.619181442857
34,0.00474376624188764,27.63662573125,7.395490462375,0,1.4990370255,1,3,0,241.29590335
35,0.00482245105525548,26.7460009885714,7.14719255042857,0,1.49905574157143,1,3,0,253.586143271429
36,0.00489198388518425,25.8618592825,7.307906009375,0,1.498878136375,1,3,0,265.459910925
37,0.00495698278518219,25.1141432042857,19.96173061,0,1.50144187657143,1,3,0,276.962350357143
38,0.00503712307912513,25.50193203125,24.01316026625,0,2.644322678625,1,3,0,288.3473190625
39,0.00512105101121802,26.3639177528571,20.4449688485714,0,3.00081441471429,1,3,0,300.0734874
40,0.00519850075355866,26.62802815,11.18677718,0,1.544632651875,1,3,0,312.0744191
41,0.00524529219049614,26.4553150014286,11.3849391357143,0,-0.558836631428571,1,3,0,324.073196185714
42,0.00525241443620543,26.2198970625,11.82804966625,0,-1.357169009875,1,3,0,335.966805675
43,0.00525810552986881,25.9912489171429,11.7544674671429,0,1.384560248,1,3,0,347.763826171429
44,0.00527246877570043,25.81217625875,18.12664994875,0,1.0593973,1,3,0,359.4530441875
45,0.00531073340733727,25.9258469214286,17.0575762714286,0,0.00220217585714286,1,3,0,371.1355937
46,0.00536588290776207,25.9419023625,15.867070495,0,3.153489822875,1,3,0,382.8573256625
47,0.00543622236069877,26.10420588,25.2090467142857,0,4.50132477728571,1,3,0,394.587553014286
48,0.00551787766715288,26.77740605,15.095493430375,0,3.909049490125,1,3,0,406.550602475
49,0.00559936032053406,26.7218271142857,13.9601131318571,0,2.21153515528571,1,3,0,418.665849171429
50,0.00566914167591978,26.57274209625,12.86780264325,0,-0.01283076025,1,3,0,430.6882580125
51,0.00569078278043546,26.3573544714286,17.2470295615714,0,0.00446683957142857,1,3,0,442.664211457143
52,0.00565085670523797,26.6161122325,23.09443328875,0,2.431196305375,1,3,0,454.5793900625
53,0.00561018179971403,27.2510110185714,14.4537297607143,0,2.99911448642857,1,3,0,466.770162528571
54,0.00558386468760546,27.11847835875,4.617287878375,0,2.998391829375,1,3,0,479.0720714875
55,0.00559152149595343,26.5240439457143,4.24576663657143,0,3.002470463,1,3,0,491.2091032
56,0.00565176365446734,25.684393555,9.0834633215,0,-1.161491860375,1,3,0,502.993398475
57,0.00572695813497904,25.19698997,11.3587933322857,0,-0.048385185,1,3,0,514.461358314286
58,0.00579231615324814,24.9419037375,7.384893993625,0,1.497210844375,1,3,0,525.7796596875
59,0.00586688481687152,24.5976676085714,3.64710834457143,0,3.838255317,1,3,0,536.977144785714
60,0.00595474046845552,24.29376865875,3.8197273195,0,1.988569376875,1,3,0,548.0157806625
61,0.00604580729895434,23.9742919171429,4.51578611571429,0,1.48504980557143,1,3,0,558.922475028571
62,0.00613804884100889,23.63760396,4.6580622825,0,3.805614969,1,3,0,569.6693584
63,0.0062307886868627,23.3240619157143,7.45261306014286,0,4.49905824771429,1,3,0,580.285506357143
64,0.00632374532305813,23.0451205025,10.41555692725,0,4.497111076875,1,3,0,590.749948575
65,0.0064167216117282,22.8242415985714,7.70623383557143,0,4.50272014742857,1,3,0,601.116047071429
66,0.00650955802436402,22.581771385,8.054045013125,0,0.841067169625,1,3,0,611.361703925
67,0.0066021054350017,22.5105775914286,23.7087449414286,0,-4.26191148471429,1,3,0,621.533431071429
68,0.00669415511609141,23.357122285,22.65218465,0,-1.9803821285,1,3,0,631.8630043125
69,0.00678547116919758,24.2907039542857,20.8013198957143,0,0.825662776428571,1,3,0,642.630843985714
70,0.00687559663062708,24.8091986875,16.19211344125,0,1.965574424625,1,3,0,653.74052915
71,0.00696386790557244,25.0376195514286,18.1083975585714,0,0.0602106821428571,1,3,0,664.988673071429
72,0.00704860218219049,25.4729242475,20.36498745375,0,1.511616444,1,3,0,676.3852575625
73,0.0071257400238603,26.0329268271429,22.4360714371429,0,2.05908565085714,1,3,0,688.004017214286
74,0.00717483342690826,26.81550309375,21.7585909075,0,3.002090562875,1,3,0,699.936107075
75,0.00715281480930981,27.5609369442857,21.3029918657143,0,2.99844927728571,1,3,0,712.227040471429
76,0.00708388546113801,28.10759114,18.21133818625,0,3.004808718375,1,3,0,724.8056368
77,0.0070032728203869,28.2651659714286,15.4506027071429,0,0.420561375,1,3,0,737.5680575
78,0.00691806408588216,28.29761157375,23.559759115,0,-0.000242531625,1,3,0,750.305677675
79,0.0068307381108514,29.00657851,20.2726047685714,0,-0.001238077,1,3,0,763.244416685714
80,0.00674227903964055,29.13910377625,11.5183195775,0,1.06170834525,1,3,0,776.4055947875
81,0.00665337408136281,28.8872464385714,18.28326864,0,4.49004186142857,1,3,0,789.504598542857
82,0.00656454835345763,28.92358614375,13.492669625875,0,3.91146478475,1,3,0,802.5573885625
83,0.00647638607950314,28.6855037942857,19.4972249242857,0,2.93438915314286,1,3,0,815.585481528571
84,0.00638987371163858,28.8463943575,16.0742900975,0,1.484584568875,1,3,0,828.5658522875
85,0.00630683915711742,28.8163502385714,12.8019546414286,0,1.50011774842857,1,3,0,841.615324057143
86,0.00623372461636102,28.51388510625,11.0531978465,0,2.379448850875,1,3,0,854.5634134
87,0.00619758751097393,28.1424570885714,20.7865424642857,0,4.50674049971429,1,3,0,867.353292328571
88,0.00623591506059072,28.3938536075,18.0584470075,0,4.4983825315,1,3,0,880.1017160125
89,0.00630465088797395,28.5728005071429,14.6681584342857,0,4.43023929385714,1,3,0,892.983540628571
90,0.00637825033698619,28.4459476625,14.66748203625,0,-1.46605098725,1,3,0,905.8558934625
91,0.00644284119234008,28.32653168,18.7727807214286,0,-1.87397614042857,1,3,0,918.683118214286
92,0.00646415663635421,28.43781198125,19.21070216625,0,2.29679244525,1,3,0,931.488204875
93,0.00642774102398342,28.6835908185714,19.9575090328571,0,2.99786633285714,1,3,0,944.3950056
94,0.00636772471313137,29.05718492875,18.297111735,0,2.83957690775,1,3,0,957.4348633625
95,0.00632684817377721,29.3380371614286,18.1024996971429,0,1.49277347628571,1,3,0,970.642942971429
96,0.00632964357011034,29.5831619375,17.97534285125,0,1.49899384575,1,3,0,983.9456850875
97,0.00636961419229039,29.7437905957143,17.3724566014286,0,1.49905574157143,1,3,0,997.3621759
98,0.00640169198946989,29.8024593525,16.986624175,0,1.4990370255,1,3,0,1010.804330125
99,0.00640744448945115,29.8274189928571,16.5096623257143,0,1.49905574157143,1,3,0,1024.28786142857
100,0.00643298708818416,29.8541701275,16.2985374225,0,1.4990370255,1,3,0,1037.760335875
101,0.0064934071176551,29.8611046357143,16.3161448985714,0,1.49905574157143,1,3,0,1051.26038742857
102,0.00656525202181647,29.8031047775,12.86574710375,0,1.4990370255,1,3,0,1064.73405225
103,0.00662986289720927,29.4208532057143,8.36229110385714,0,1.49809484385714,1,3,0,1078.14271857143
104,0.00666798146703664,28.559235475,7.212794812125,0,1.810106020125,1,3,0,1091.230401625
105,0.00666202394638752,27.6399909671429,9.098347133,0,2.98683285542857,1,3,0,1103.94043414286
106,0.00660834685789215,26.8446189275,16.498036335,0,0.426548315625,1,3,0,1116.214016375
107,0.00653772084912284,26.7660382742857,17.3155415214286,0,-0.000319284142857143,1,3,0,1128.308144
108,0.0064697463548377,26.94046642375,15.8858304125,0,0.4402059125,1,3,0,1140.42383975
109,0.00643084386720639,26.9403437071429,12.8237987871429,0,1.503842379,1,3,0,1152.61834328571
110,0.00646555880087452,26.67981590875,15.47819215125,0,1.4990370255,1,3,0,1164.720270125
111,0.00653690061424689,26.5149279028571,16.9670740142857,0,1.49900639328571,1,3,0,1176.73650928571
112,0.00661709809753787,26.4571484775,13.099845035,0,1.51690916925,1,3,0,1188.691501125
113,0.00669897316242511,26.1947288771429,7.53250458142857,0,3.00439374885714,1,3,0,1200.606484
114,0.0067787650228246,25.55649892625,13.946514236625,0,2.998117230875,1,3,0,1212.2858935
115,0.00684993945523335,25.2639611957143,17.3691686628571,0,2.99811148314286,1,3,0,1223.75203528571
116,0.00688245605763647,25.39074182125,16.4395180875,0,2.998074051,0.625,1.875,0,1235.175266125
117,0.00684357344730966,25.39026509,7.254918435,0,2.99811148314286,0,0,0,1246.67674528571
118,0.00677505071170295,24.781326145,5.833899741125,0,2.998074051,0,0,0,1258.005742
119,0.00671334897670794,23.8307958071429,8.12664741557143,0,2.99816083157143,0,0,0,1269.00721757143
120,0.00668220848291553,22.95876447125,6.865621563875,0,2.83957690775,0,0,0,1279.54087925
121,0.00662734640954715,22.52394509,12.0107633552857,0,1.49393490357143,0,0,0,1289.81969157143
122,0.00654820322747042,22.3527395725,8.9086522975,0.000270253,1.330834365375,0,0,0,1299.936215125
123,0.00646462956585635,22.1172860628571,3.34000412028571,3.78287914257143,-9.55102019842857,0,0,0,1310.00804157143
124,0.00638161319610479,21.12098058125,3.5323738715,15.861464316875,-10.494777225,0,0,0,1319.770236
125,0.00630318300565155,20.0922688657143,3.22161187214286,18.4546009185714,-12.47814563,0,0,0,1329.07815942857
126,0.00624296301040269,18.21243086375,3.29808918475,24.09809340375,-24.31299405375,0,0,0,1337.694777875
127,0.00624358220510934,16.2959131314286,3.18600069385714,23.3722350528571,-19.84731466,0,0,0,1345.39476142857
128,0.0063039194242936,13.53803425875,2.898567056625,28.52423223125,21.94750421625,0,0,0,1351.999822625
129,0.00637909977351734,10.385056782,2.43300125542857,28.6493104385714,136.168850794286,0,0,0,1357.35932214286
130,0.00645707081981279,7.231307952875,2.4098321705,27.531760625,238.5778447,0,0,0,1361.30426225
131,0.00653130600892487,5.41468525728571,2.58702170642857,13.8114386057143,353.555420785714,0,0,0,1363.996521
132,0.00658398219610717,4.9662766505,2.499219976625,2.1560420185,436.97433035,0,0,0,1365.937007
133,0.00657097897387469,4.660797349,3.77985860914286,0.000594958142857143,500.053517942857,0,0,0,1367.30768071429
134,0.00650745412667235,4.525077432625,16.7249913225,0,541.3441859625,0,0,0,1367.8920495
135,0.00643481623590716,5.30753162057143,13.7336650171429,0,552.533184385714,0,0,0,1367.68491171429
136,0.00636980778230047,5.859852883,17.16954508375,0,552.21359525,0,0,0,1366.29496475
137,0.00634937451215437,6.84922514442857,16.58949717,0,441.879529742857,0,0,0,1363.84030014286
138,0.00639638751381353,7.747791768875,7.9163957565,0,240.6480351,0,0,0,1360.60258475
139,0.00645956983439653,7.89268571385714,5.59974278814286,0,90.3637111342857,0,0,0,1357.28332671429
140,0.00650246229654271,8.101339886875,21.5300442225,0,-6.482304844375,0,0,0,1353.960467625
141,0.00647849405886255,9.715218782,25.4172661,0,-55.3036658785714,0,0,0,1350.26268214286
142,0.00641259063979121,12.0953263025,23.141834325,0,-61.47388677125,0,0,0,1345.45974925
143,0.00634714524109202,14.1061012642857,27.59560821,0,-52.2417817928571,0,0,0,1339.64828214286
144,0.00631516346675015,16.61425097,28.8175293075,0,-23.93113157125,0,0,0,1332.69430075
145,0.00629449269044147,18.9986174114286,27.1353330985714,0,-4.53164787728571,0,0,0,1324.65082571429
146,0.00627201057362778,20.57002791375,21.33218648,0,0.8151452695,0,0,0,1315.63726275
147,0.00626762072005207,21.5392194685714,23.2018856342857,0,2.30173198385714,0,0,0,1306.13674957143
148,0.00624056588470021,22.5866747975,24.00133326125,0,4.499198609625,0,0,0,1296.145030875
149,0.00617466246754346,23.6316651942857,21.7641614514286,0,4.49606651042857,0,0,0,1285.71377285714
150,0.00609975612811905,24.53347922,22.33724775,0,5.224768295875,0,0,0,1274.7976685
151,0.00603536149914077,25.3870629014286,21.7307686957143,0,6.00016065814286,0,0,0,1263.53411257143
152,0.00602444908106546,26.13684139375,20.31295625,0,2.806692501375,0,0,0,1251.862766
153,0.00606693425848538,26.7150504171429,20.9214453514286,0,0.000700874142857143,0.857142857142857,1.28571428571429,0,1239.94075528571
154,0.00611093061201054,27.35352328625,18.654795145,0,0.438332874125,2,3,0,1227.711258
155,0.00612348221077498,27.5592662728571,12.62924276,0,2.06246614228571,2,3,0,1215.29272128571
156,0.00608529708372148,27.4492286225,18.3367061225,0,3.589122781875,2,3,0,1202.864482
157,0.00602217955784878,27.6886092742857,17.3973942785714,0,4.49749062828571,2,3,0,1190.43076471429
158,0.00597390693408035,27.99557446625,17.7304246,0,4.18240533025,2,3,0,1177.831405875
159,0.00596194914326931,28.3483602957143,18.0923895114286,0,0.924235623142857,2,3,0,1165.12001671429
160,0.00596872154792939,28.693771765,18.242249745,0,3.175231503625,2,3,0,1152.213436375
161,0.00599726523459647,29.0288121742857,20.3056426957143,0,3.11475593785714,2,3,0,1139.19495314286
162,0.00603526033224409,29.48818827875,20.23756443,0,2.997190085875,2,3,0,1125.95940575
163,0.00606444358249642,29.8247925428571,10.3483708678571,0,2.99811148314286,2,3,0,1112.55715242857
164,0.00608922290286207,29.36085463,6.78572911675,0,2.996150632125,2,3,0,1099.14439525
165,0.00609819429647751,28.7090596057143,15.39120039,0,3.88252409314286,2,3,0,1086.06426985714
166,0.0060675577020973,28.67558393875,15.27375574375,0,4.498074202375,2,3,0,1073.093372125
167,0.00603265260964074,28.6921457585714,15.6895752714286,0,4.49721657328571,2,3,0,1060.14596614286
168,0.00602759153524376,28.6944304825,11.285650118375,0,4.33861393325,2,3,0,1047.165418125
169,0.00605523240470758,28.4068329585714,9.13219294671429,0,2.99182921814286,2,3,0,1034.26753028571
170,0.00608989283645609,27.919216975,10.67169869675,0,2.99803087125,2,3,0,1021.537267
171,0.0061277435743425,27.5867285828571,7.78324588571429,0,2.99357053257143,2,3,0,1009.00953614286
172,0.00619140843078949,27.10235121625,9.0342516485,0,3.99204955375,2,3,0,996.6347402875
173,0.00626472160709624,26.7027276728571,17.14666589,0,2.99103321757143,2,3,0,984.511217114286
174,0.00632680026619068,26.7706564675,13.006166525375,0,2.99735041525,2,3,0,972.4222133125
175,0.00638998700806176,26.5749886642857,7.91443115071429,0,3.30747375314286,2,3,0,960.364213185714
176,0.00645314920921585,25.8565705875,8.747643088125,0,5.110888145,2,3,0,948.492423125
177,0.00647925153214367,24.9745176814286,10.2619937522857,0,3.00556076642857,2,3,0,937.023456371429
178,0.00645715265906094,24.58156160125,19.0056798475,0,2.99777848125,2,3,0,925.8535714
179,0.00640438051538619,24.9266784857143,16.31239535,0,3.00032802614286,2,3,0,914.695333528571
180,0.00634621649636538,25.08939052,15.41978994875,0,3.85511461925,2,3,0,903.3700204375
181,0.0063053425217659,25.30340532,24.8586176971429,0,3.30063265228571,2,3,0,892.024421157143
182,0.00628732412844045,26.1561548025,19.7149837375,0,2.998672305125,2,3,0,880.3820127625
183,0.0063216762583484,26.4190425614286,18.2133531228571,0,2.99811148314286,2,3,0,868.486573814286
184,0.00639114981222118,26.6818198125,18.363889305,0,2.998074051,2,3,0,856.491479925
185,0.00646315029309333,26.98787322,13.2531359802857,0,2.99604987057143,2,3,0,844.3701236
186,0.00651080363495987,26.7543173825,10.6870329135,0,3.8958574865,2,3,0,832.204213525
187,0.00654353273003577,26.3887259314286,10.7996951828571,0,5.98686257185714,2,3,0,820.211151985714
188,0.00659186267923617,26.09865085375,11.34451725875,0,5.13341082425,2,3,0,808.3433265625
189,0.00665560786404632,25.8652439128571,19.5353178271429,0,4.09241917085714,2,3,0,796.619573142857
190,0.00671303077910586,26.14918746125,19.119653915,0,2.689251814125,2,3,0,784.87601415
191,0.00672208936880427,26.5784889742857,17.1848329171429,0,1.50460120157143,2,3,0,772.975939214286
192,0.00669074174545625,26.80274228,16.88183986375,0,1.809492672,2,3,0,760.9070159875
193,0.0066396499927817,26.8792637542857,13.7107779571429,0,2.99160512571429,2,3,0,748.786052085714
194,0.00656808329119235,26.8068796525,13.46347198125,0,2.998369620875,2,3,0,736.6509558625
195,0.00649407140156811,26.6661795357143,14.7500194842857,0,2.99811148314286,2,3,0,724.579930228571
196,0.00643815285835957,26.72931820375,20.11280294125,0,2.998074051,2,3,0,712.526373375
197,0.00640906847504246,27.1646063657143,19.1010118,0,2.99811148314286,2,3,0,700.368596728571
198,0.00641051922178787,27.6144776625,18.9973876325,0,2.998074051,2,3,0,687.9845180125
199,0.00642329199813739,28.0849357857143,23.2153570571429,0,2.99811148314286,2,3,0,675.4151981
200,0.00643180171228283,28.74008821125,21.690000945,0,2.998074051,2,3,0,662.57020425
201,0.00644934932060297,29.2322069157143,18.2322069571429,0,2.99811148314286,2,3,0,649.4726167
202,0.00645825666856246,29.52081655625,19.24427617625,0,2.998074051,2,3,0,636.190218425
203,0.0064513786669333,29.8309644714286,21.8527730814286,0,2.99811148314286,2,3,0,622.8078772
204,0.00642959681861865,30.15817623625,12.5644232975,0,2.998074051,2,3,0,609.2255686375
205,0.00639879822006713,29.9549378471429,9.55722762714286,0,2.99811148314286,2,3,0,595.648095671429
206,0.00639935716836882,29.61204153375,8.99798394975,0,2.99823294025,2,3,0,582.1878068625
207,0.00643142671906334,29.2904400271429,8.88132201471429,0,2.99462463357143,2,3,0,568.886262457143
208,0.00646115248909996,28.95320027625,10.937158157625,0,2.44377514775,2,3,0,555.7244008375
209,0.00649849730964777,28.6587160471429,15.5800892285714,0,5.23957196157143,2,3,0,542.7297601
210,0.0065427061337217,28.56416381625,14.90923365625,0,4.546562238,2,3,0,529.796439875
