Time,Perspiration,Drive,Speed,Acceleration,Braking,Steering,Lane Deviation,Distance,Activity,Failure,Phase,New Steering
0.133333333,0.00630745,3,0.009182064,2.232484184,27.27098956,-9.183671046,-2.076461864,-8.02767619,0,0,0,-9.183671046
0.266666667,0.006269347,3,0.012852339,2.68935595,32.54806474,-10.91208132,-2.108731797,-8.02767619,0,0,0,-10.91208132
0.4,0.006229245,3,0.003852061,2.552359144,30.59676895,-10.27807514,-2.096894714,-8.02767619,0,0,0,-10.27807514
0.533333333,0.006187229,3,0,2.624557816,31.76369103,-10.63129079,-2.103489355,-8.02767619,0,0,0,-10.63129079
0.666666667,0.006143419,3,0.000470835,2.578119866,30.95280507,-10.40863717,-2.099332346,-8.02767619,0,0,0,-10.40863717
0.8,0.006097959,3,0,2.617628563,31.52068459,-10.55414699,-2.102049057,-8.02767619,0,0,0,-10.55414699
0.933333333,0.006051018,3,0.000183018,2.586636089,31.18244113,-10.46136599,-2.100316808,-8.02767619,0,0,0,-10.46136599
1.066666667,0.00600278,3,0,2.596969403,31.24538246,-10.51596494,-2.101336187,-8.02767619,0,0,0,-10.51596494
1.2,0.005953441,3,7.62E-05,2.578550134,31.13219405,-10.4873297,-2.100801558,-8.02767619,0,0,0,-10.4873297
1.333333333,0.005903207,3,0,2.575103119,31.1300029,-10.50123988,-2.101061266,-8.02767619,0,0,0,-10.50123988
1.466666667,0.005852289,3,2.61E-05,2.579932843,31.10210809,-10.49380943,-2.100922537,-8.02767619,0,0,0,-10.49380943
1.6,0.005800905,3,0,2.574296923,31.06596403,-10.49380943,-2.100922537,-8.02767619,0,0,0,-10.49380943
1.733333333,0.005749275,3,3.56E-05,2.578005664,30.99252051,-10.49234209,-2.100895141,-8.026553688,0,0,0,-10.49234209
1.866666667,0.005697624,3,0,2.545347522,31.04509344,-10.49380943,-2.100922537,-8.02767619,0,0,0,-10.49380943
2,0.005646183,3,9.94E-05,2.548575887,31.05484988,-10.49380943,-2.100922537,-8.02767619,0,0,0,-10.49380943
2.133333333,0.005595189,3,0,2.545346968,31.19264827,-10.49234209,-2.100895141,-8.026553688,0,0,0,-10.49234209
2.266666667,0.00554489,3,0.000224411,2.532740928,31.19450448,-10.49380943,-2.100922537,-8.02767619,0,0,0,-10.49380943
2.4,0.005495547,3,0,2.544688137,31.1188741,-10.49380943,-2.100922537,-8.02767619,0,0,0,-10.49380943
2.533333333,0.005447437,3,0.000597854,2.565166358,31.12211942,-10.49234209,-2.100895141,-8.026553688,0,0,0,-10.49234209
2.666666667,0.005400852,3,0,2.568772151,31.02261528,-10.49380943,-2.100922537,-8.02767619,0,0,0,-10.49380943
2.8,0.00535611,3,0.007226962,2.574159355,30.99224774,-10.49380943,-2.10092255,-8.027692158,0,0,0,-10.49380943
2.933333333,0.005313548,3,0.011390275,2.570994324,31.14663643,-10.49234209,-2.10089512,-8.026527475,0,0,0,-10.49234209
3.066666667,0.005273527,3,0,2.597999977,31.11272416,-10.49380943,-2.100922587,-8.02773667,0,0,0,-10.49380943
3.2,0.005236428,3,0.007544451,2.594469095,31.09473819,-10.49380943,-2.100922461,-8.02758434,0,0,0,-10.49380943
3.333333333,0.005202637,3,0.003053448,2.5984764,31.07394755,-10.49234209,-2.100895267,-8.026707213,0,0,0,-10.49234209
3.466666667,0.00517254,3,0,2.610019588,31.06511288,-10.49380943,-2.10092235,-8.027448399,0,0,0,-10.49380943
3.6,0.005146502,3,0.008443464,2.606953291,31.03806032,-10.49380943,-2.100922838,-8.028042314,0,0,0,-10.49380943
3.733333333,0.005124843,3,0.009655424,2.609018639,31.04503385,-10.49234209,-2.100894647,-8.025952246,0,0,0,-10.49234209
3.866666667,0.005107821,3,0.003028836,2.60560219,31.06192958,-10.49380943,-2.100923549,-8.028906865,0,0,0,-10.49380943
4,0.005095609,3,0.013307711,2.612160183,31.06833847,-10.49380943,-2.100916693,-8.02056846,0,0,0,-10.49380943
4.133333333,0.005088285,3,0.000508942,2.62471337,31.05137816,-10.49234209,-2.100885031,-8.014255825,0,0,0,-10.49234209
4.266666667,0.005085818,3,0.00010387,2.636374118,31.08013514,-10.49380943,-2.1009138,-8.017049372,0,0,0,-10.49380943
4.4,0.005088075,3,0,2.622170593,31.06591809,-10.49380943,-2.100913026,-8.01610738,0,0,0,-10.49380943
4.533333333,0.005094809,3,7.52E-05,2.589266854,31.067159,-10.49234209,-2.100886143,-8.015608465,0,0,0,-10.49234209
4.666666667,0.00510566,3,0,2.634536872,31.09044882,-10.49380943,-2.100913162,-8.016272493,0,0,0,-10.49380943
4.8,0.005120128,3,0,2.626293439,31.07205861,-10.49380943,-2.100913475,-8.016654093,0,0,0,-10.49380943
4.933333333,0.005137562,3,8.63E-05,2.608708071,31.05789452,-10.49234209,-2.10088577,-8.015154804,0,0,0,-10.49234209
5.066666667,0.00515713,3,0,2.596989818,31.08595446,-10.49380943,-2.100913543,-8.016736334,0,0,0,-10.49380943
5.2,0.005177812,3,0.000240516,2.59588508,31.06737421,-10.49380943,-2.100912951,-8.01601606,0,0,0,-10.49380943
5.333333333,0.005198402,3,0,2.611495436,31.0979741,-10.49234209,-2.100893993,-8.025157422,0,0,0,-10.49234209
5.466666667,0.005217539,3,0.000578208,2.630186412,31.09007952,-10.49380943,-2.100922904,-8.028122458,0,0,0,-10.49380943
5.6,0.005233767,3,0,2.626114961,31.06506655,-10.49380943,-2.100922348,-8.027446016,0,0,0,-10.49380943
5.733333333,0.005245618,3,0.002485974,2.617089796,31.06249421,-10.49234209,-2.100895263,-8.026701937,0,0,0,-10.49234209
5.866666667,0.005251719,3,0.007541789,2.618669646,31.07657216,-10.49380943,-2.100922462,-8.027585317,0,0,0,-10.49380943
6,0.005250904,3,0,2.622534005,31.05693386,-10.49380943,-2.10092259,-8.027740566,0,0,0,-10.49380943
6.133333333,0.005242322,3,0.009137004,2.630316908,31.0419136,-10.49234209,-2.100895114,-8.026520638,0,0,0,-10.49234209
6.266666667,0.005225519,3,0,2.624132785,31.01363826,-10.49380943,-2.100922556,-8.027699828,0,0,0,-10.49380943
6.4,0.005200491,3,0.000291695,2.618407717,30.99559464,-10.49380943,-2.100922531,-8.027669276,0,0,0,-10.49380943
6.533333333,0.005167682,3,0,2.631555595,30.92140729,-10.49234209,-2.100895149,-8.026563181,0,0,0,-10.49234209
6.666666667,0.005127935,3,0.000139836,2.602410566,31.03254131,-10.49380943,-2.100922537,-8.02767619,0,0,0,-10.49380943
6.8,0.005082407,3,0,2.612750476,31.45603992,-10.49380943,-2.100922537,-8.02767619,0,0,0,-10.49380943
6.933333333,0.005032449,3,0.000124552,2.600246023,31.01502078,-10.49234209,-2.100895141,-8.026553688,0,0,0,-10.49234209
7.066666667,0.004979491,3,0,2.588715586,29.61905707,-10.49380943,-2.100922537,-8.02767619,0,0,0,-10.49380943
7.2,0.004924934,3,0.000233614,2.629934003,29.39797306,-10.49380943,-2.100922537,-8.02767619,0,0,0,-10.49380943
7.333333333,0.004870068,3,0,2.613865783,29.93506577,-10.49234209,-2.100895141,-8.026553688,0,0,0,-10.49234209
7.466666667,0.004816022,3,0.000578208,2.635497638,28.1442898,-10.49380943,-2.100922537,-8.02767619,0,0,0,-10.49380943
7.6,0.004763739,3,0,2.667724929,21.78315954,-10.49380943,-2.100922537,-8.02767619,0,0,0,-10.49380943
7.733333333,0.004713972,3,0.002485974,2.662752165,4.070120471,-10.49234209,-2.100895141,-8.026553688,0,0,0,-10.49234209
7.866666667,0.004667296,3,0.007541789,2.756894511,0,-10.49380943,-2.100922537,-8.02767619,0,0,0,-10.49380943
8,0.004624121,3,0,2.721360206,0.247092549,-10.49380943,-2.100922537,-8.02767619,0,0,0,-10.49380943
8.133333333,0.004584719,3,0.000748479,4.713881735,0,-10.49234209,-2.100895141,-8.026553688,0,0,0,-10.49234209
8.266666667,0.004549234,3,0,5.432045634,0.09470815,-10.49380943,-2.100922537,-8.02767619,0,0,0,-10.49380943
8.4,0.004517692,3,0.000291695,8.179935466,0,-10.49380943,-2.100922537,-8.02767619,0,0,0,-10.49380943
8.533333333,0.00449,3,0,9.563526555,0.016523831,-10.49234209,-2.100895141,-8.026553688,0,0,0,-10.49234209
8.666666667,0.004465941,3,0.000115302,9.208917426,0,-10.49380943,-2.100922537,-8.02767619,0,0,0,-10.49380943
8.8,0.004445168,3,0,11.35278872,0,-10.49380943,-2.100922537,-8.02767619,0,0,0,-10.49380943
8.933333333,0.00442721,3,3.56E-05,10.19261549,0.011629685,-10.49234209,-2.100895141,-8.026553688,0,0,0,-10.49234209
9.066666667,0.004411489,3,0,10.63791527,0,-10.49380943,-2.100922537,-8.02767619,0,0,0,-10.49380943
9.2,0.004397349,3,0,8.897631468,0.090069009,-10.49380943,-2.100922537,-8.02767619,0,0,0,-10.49380943
9.333333333,0.004384116,3,0,3.961794541,0,-10.49234209,-2.100895141,-8.026553688,0,0,0,-10.49234209
9.466666667,0.004371147,3,0,3.394795438,0.231451792,-10.49380943,-2.100922537,-8.02767619,0,0,0,-10.49380943
9.6,0.004357905,3,4.21E-05,3.254935799,0,-10.49380943,-2.100922537,-8.02767619,0,0,0,-10.49380943
9.733333333,0.00434402,3,0,3.158947539,3.467376984,-10.49234209,-2.100895141,-8.026553688,0,0,0,-10.49234209
9.866666667,0.004329334,3,0.000150382,3.103314723,17.894148,-10.49380943,-2.100922537,-8.02767619,0,0,0,-10.49380943
10,0.004313933,3,0,3.018541013,23.10393305,-10.49380943,-2.100922537,-8.02767619,0,0,0,-10.49380943
10.13333333,0.004298141,3,0.000402288,2.984908319,27.58399145,-10.49234209,-2.100895141,-8.026553688,0,0,0,-10.49234209
10.26666667,0.004282484,3,0,2.88707686,28.74792806,-10.49380943,-2.100922537,-8.02767619,0,0,0,-10.49380943
10.4,0.004267632,3,0.001033763,2.843225701,30.66339977,-10.49380943,-2.100922537,-8.02767619,0,0,0,-10.49380943
10.53333333,0.004254319,3,0,2.905303371,32.73387584,-10.49234209,-2.100895141,-8.026553688,0,0,0,-10.49234209
10.66666667,0.004243264,3,0.00554784,2.929721601,33.83154765,-10.49380943,-2.100922537,-8.02767619,0,0,0,-10.49380943
10.8,0.004235104,3,0.004771978,3.004822829,33.99841992,-10.49380943,-2.10092255,-8.027692158,0,0,0,-10.49380943
10.93333333,0.004230335,3,0,2.976563682,33.71580619,-10.49234209,-2.100895127,-8.026536969,0,0,0,-10.49234209
11.06666667,0.004229289,3,0.012264625,3.083845881,33.53011023,-10.49380943,-2.100922595,-8.027747416,0,0,0,-10.49380943
11.2,0.004232114,3,0.010422018,3.111614653,33.80938061,-10.49380943,-2.100922486,-8.027613742,0,0,0,-10.49380943
11.33333333,0.004238774,3,0.002832747,3.111025284,33.62427536,-10.49234209,-2.10090351,-8.026715712,0,0,0,-10.49234209
11.46666667,0.004249061,3,0.011134952,3.01264637,33.43473699,-10.49380943,-2.100916457,-8.027575829,0,0,0,-10.49380943
11.6,0.004262608,3,0.005205364,3.366497395,33.03833048,-10.49380943,-2.100943288,-8.027974802,0,0,0,-10.49380943
11.73333333,0.004278915,3,0.004707184,2.768945128,32.86772031,-10.49234209,-2.100866185,-8.026205304,0,0,0,-10.49234209
11.86666667,0.004297375,3,0.009399364,3.619433247,11.7220756,-10.49380943,-2.100979296,-8.028788486,0,0,0,-10.49380943
12,0.004317315,3,0.066155601,2.135639953,0,-10.49380943,-2.100838294,-8.021091803,0,0,0,-10.49380943
12.13333333,0.004338041,3,0.16336647,5.503355193,0.833180699,-10.49488432,-2.101012719,-8.013144461,0,0,0,-10.49488432
12.26666667,0.00435889,3,0.304833063,11.46862913,0,-10.49432264,-2.100718389,-8.003597515,0,0,0,-10.49432264
12.4,0.004379272,3,0.41710249,3.402637623,0.304573633,-10.49877335,-2.101247319,-7.979464371,0,0,0,-10.49877335
12.53333333,0.004398712,3,0.533102929,6.322093486,0,-10.48748005,-2.099668641,-7.948890558,0,0,0,-10.48748005
12.66666667,0.004416863,3,0.633841522,9.82409613,0.12647973,-10.50800238,-2.090659581,-7.916711877,0,0,0,-10.50800238
12.8,0.004433508,3,0.739384198,9.241820406,0,-10.47633908,-2.091404819,-7.87060662,0,0,0,-10.47633908
12.93333333,0.00444854,3,0.845755918,10.04608622,0.033366589,-10.52362795,-2.090710959,-7.825766952,0,0,0,-10.52362795
13.06666667,0.004461932,3,0.954455521,12.91198806,0,-10.44839629,-2.091381612,-7.779462835,0,0,0,-10.44839629
13.2,0.00447371,3,1.057751796,14.00695187,0,-10.58916392,-2.09042662,-7.711147519,0,0,0,-10.58916392
13.33333333,0.004483931,3,1.16205634,15.76115413,0,-9.05711287,-2.091826594,-7.644017727,0,0,0,-9.05711287
13.46666667,0.00449267,3,1.286102775,18.53390243,0,-7.000599504,-2.08732041,-7.574708745,0,0,0,-7.000599504
13.6,0.004500014,3,1.444611127,15.02679456,0,-4.932496756,-2.07993628,-7.490635719,0,0,0,-4.932496756
13.73333333,0.004506073,3,1.630559572,14.67451599,0,-4.407234186,-2.081579531,-7.399952522,0,0,0,-4.407234186
13.86666667,0.004510985,3,1.857856158,20.25577275,0,-4.526091151,-2.080442271,-7.293845207,0,0,0,-4.526091151
14,0.004514927,3,2.102958351,21.60388245,0,-4.500737166,-2.08129884,-7.17315221,0,0,0,-4.500737166
14.13333333,0.004518115,3,2.379902205,17.9569134,0,-4.453301884,-2.072187828,-7.042640358,0,0,0,-4.453301884
14.26666667,0.00452081,3,2.659945108,21.86278888,0,-4.620478808,-2.07033674,-6.891165475,0,0,0,-4.620478808
14.4,0.004523294,3,2.933898586,20.51641667,0,-3.611079859,-2.071287042,-6.719309967,0,0,0,-3.611079859
14.53333333,0.004525846,3,3.239588822,19.83632049,0,-2.667259447,-2.061907786,-6.53563973,0,0,0,-2.667259447
14.66666667,0.004528704,3,3.540766516,20.61188521,0,-1.519341774,-2.060432124,-6.333011013,0,0,0,-1.519341774
14.8,0.004532028,3,3.864609222,20.48595177,0,-1.492696264,-2.060637349,-6.107489783,0,0,0,-1.492696264
14.93333333,0.004535861,3,4.180392875,21.1987521,0,-1.499407858,-2.052491323,-5.864387131,0,0,0,-1.499407858
15.06666667,0.004540113,3,4.493154309,22.13470266,0,-1.520188775,-2.046766005,-5.600529343,0,0,0,-1.520188775
15.2,0.004544551,3,4.80095139,22.4208384,0,-1.469071399,-2.03918035,-5.323315044,0,0,0,-1.469071399
15.33333333,0.004548807,3,5.105736533,21.42510613,0,-1.572212559,-2.03342123,-5.017324058,0,0,0,-1.572212559
15.46666667,0.004552403,3,5.422387822,21.30219064,0,-1.142476638,-2.025450011,-4.701054936,0,0,0,-1.142476638
15.6,0.00455478,3,5.727645345,20.60664295,0,1.779087681,-2.020580215,-4.363607072,0,0,0,1.779087681
15.73333333,0.00455534,3,6.026105228,23.20913948,0,7.644663836,-2.010018795,-4.00942025,0,0,0,7.644663836
15.86666667,0.004553495,3,6.348413351,23.75175404,0,14.80141293,-2.000319931,-3.646327974,0,0,0,14.80141293
16,0.004548708,3,6.662991708,24.83779021,0,17.52786948,-1.994329987,-3.246656698,0,0,0,17.52786948
16.13333333,0.004540546,3,6.982831481,23.25156292,0,18.17976019,-1.987955857,-2.843322842,0,0,0,18.17976019
16.26666667,0.004528714,3,7.302893689,25.27608604,0,15.29925458,-1.9773674,-2.409779693,0,0,0,15.29925458
16.4,0.00451309,3,7.630510765,26.91220174,0,13.22516934,-1.962777175,-1.958656977,0,0,0,13.22516934
16.53333333,0.004493735,3,7.959153783,25.43035159,0,13.62401711,-1.950101759,-1.492644822,0,0,0,13.62401711
16.66666667,0.004470899,3,8.250660996,25.40436045,0,13.41801498,-1.936582433,-1.006045219,0,0,0,13.41801498
16.8,0.004444997,3,8.590169874,25.4877595,0,13.54772227,-1.923026721,-0.495976914,0,0,0,13.54772227
16.93333333,0.004416582,3,8.955103488,26.38507541,0,13.46284302,-1.902411213,0.030303707,0,0,0,13.46284302
17.06666667,0.004386298,3,9.359184037,24.31526708,0,13.51424399,-1.882505142,0.575459234,0,0,0,13.51424399
17.2,0.004354838,3,9.72213245,20.38020136,0,13.47913499,-1.863305877,1.15248252,0,0,0,13.47913499
17.33333333,0.00432289,3,9.992078608,20.0998858,0,13.49590241,-1.841145469,1.746685088,0,0,0,13.49590241
17.46666667,0.0042911,3,10.20316419,19.18691861,0,13.49012923,-1.814010634,2.355364126,0,0,0,13.49012923
17.6,0.004260043,3,10.38302472,21.96794634,0,13.49067447,-1.787161462,2.978717673,0,0,0,13.49067447
17.73333333,0.004230196,3,10.60097561,24.91033599,0,13.4941424,-1.762263498,3.604564316,0,0,0,13.4941424
17.86666667,0.004201932,3,10.81216191,24.53757266,0,13.48899434,-1.730986666,4.24765613,0,0,0,13.48899434
18,0.004175517,3,11.04169861,23.59583682,0,13.49890528,-1.698212653,4.90932489,0,0,0,13.49890528
18.13333333,0.004151109,3,11.26501129,22.47886692,0,13.48174035,-1.662947411,5.573285238,0,0,0,13.48174035
18.26666667,0.004128761,3,11.49608383,24.12329513,0,13.51063048,-1.625683646,6.263904807,0,0,0,13.51063048
18.4,0.004108423,3,11.71938557,24.31769535,0,13.46652271,-1.595347738,6.968695884,0,0,0,13.46652271
18.53333333,0.004089955,3,11.95570857,23.66451291,0,13.56036141,-1.551469367,7.669944622,0,0,0,13.56036141
18.66666667,0.00407314,3,12.20105062,24.49395444,0,13.11167058,-1.506000947,8.39681791,0,0,0,13.11167058
18.8,0.004057712,3,12.45974106,24.58149392,0,10.88479168,-1.458924444,9.1411589,0,0,0,10.88479168
18.93333333,0.004043381,3,12.69288283,23.36888567,0,10.42208771,-1.414793623,9.893194444,0,0,0,10.42208771
19.06666667,0.004029868,3,12.96322884,23.42027205,0,10.5451022,-1.364119722,10.6640302,0,0,0,10.5451022
19.2,0.004016933,3,13.17373454,23.10631808,0,10.44871293,-1.311133303,11.4521733,0,0,0,10.44871293
19.33333333,0.004004392,3,13.37217859,23.14189491,0,10.57479889,-1.258390231,12.24410783,0,0,0,10.57479889
19.46666667,0.003992135,3,13.62733515,23.08914738,0,10.14055692,-1.207576824,13.0553624,0,0,0,10.14055692
19.6,0.003980123,3,13.83470025,22.9912654,0,7.173546141,-1.147239103,13.88756243,0,0,0,7.173546141
19.73333333,0.003968381,3,14.07943651,23.40045177,0,2.862480113,-1.090772713,14.72182915,0,0,0,2.862480113
19.86666667,0.003956987,3,14.2826859,25.27713893,0,1.668548918,-1.025537522,15.5703615,0,0,0,1.668548918
20,0.003946047,3,14.47272845,24.42508889,0,-0.210029348,-0.966799561,16.43236997,0,0,0,-0.210029348
20.13333333,0.00393567,3,14.65566892,24.10132205,0,-5.729971679,-0.905239792,17.30796903,0,0,0,-5.729971679
20.26666667,0.003925953,3,14.873942,23.84728958,0,-6.045442082,-0.842463407,18.19760753,0,0,0,-6.045442082
20.4,0.003916951,3,15.08350971,24.71070228,0,-5.949370789,-0.784866432,19.09614176,0,0,0,-5.949370789
20.53333333,0.003908678,3,15.27211348,25.22762051,0,-6.182397117,-0.725294202,20.00727827,0,0,0,-6.182397117
20.66666667,0.003901099,3,15.48719075,23.76016366,0,-7.561779393,-0.666225686,20.92706635,0,0,0,-7.561779393
20.8,0.003894137,3,15.69534497,25.2137915,0,-7.470281369,-0.612249802,21.87530744,0,0,0,-7.470281369
20.93333333,0.003887689,3,15.85667154,24.54523326,0,-7.519913702,-0.561222917,22.81542951,0,0,0,-7.519913702
21.06666667,0.003881643,3,16.05562362,26.42240471,0,-7.485897438,-0.506758893,23.77269078,0,0,0,-7.485897438
21.2,0.003875896,3,16.2749781,25.5654953,0,-7.506149908,-0.461219997,24.75004293,0,0,0,-7.506149908
21.33333333,0.003870372,3,16.48256624,23.59023509,0,-7.495189361,-0.41390495,25.73216461,0,0,0,-7.495189361
21.46666667,0.003865032,3,16.70747932,23.84695475,0,-7.500182122,-0.372328109,26.72946382,0,0,0,-7.500182122
21.6,0.003859887,3,16.8943274,23.25846745,0,-7.496451338,-0.332820008,27.75035935,0,0,0,-7.496451338
21.73333333,0.003854993,3,17.11216518,23.52643835,0,-7.495364297,-0.293780827,28.75896971,0,0,0,-7.495364297
21.86666667,0.003850451,3,17.31660896,23.80578682,0,-7.503516018,-0.252659032,29.79203874,0,0,0,-7.503516018
22,0.003846392,3,17.52114152,23.95610626,0,-7.486771044,-0.219858136,30.85086186,0,0,0,-7.486771044
22.13333333,0.003842959,3,17.72239532,23.77425183,0,-7.513464087,-0.185403365,31.90567226,0,0,0,-7.513464087
22.26666667,0.003840293,3,17.93437803,23.60530259,0,-7.469839879,-0.156927141,32.97936679,0,0,0,-7.469839879
22.4,0.003838507,3,18.14788821,23.67062135,0,-7.548204387,-0.129759513,34.06812125,0,0,0,-7.548204387
22.53333333,0.003837678,3,18.33249265,25.18664767,0,-7.344522358,-0.105308792,35.16063884,0,0,0,-7.344522358
22.66666667,0.003837837,3,18.51973897,25.07745179,0,-5.600790036,-0.085728294,36.27216667,0,0,0,-5.600790036
22.8,0.003838965,3,18.71520087,24.57687374,0,-3.336383115,-0.065545799,37.39746316,0,0,0,-3.336383115
22.93333333,0.003840996,3,18.90363029,24.6295045,0,-3.058492268,-0.043923236,38.52054097,0,0,0,-3.058492268
23.06666667,0.00384383,3,19.10643179,24.57981429,0,-2.489262542,-0.028936908,39.67154391,0,0,0,-2.489262542
23.2,0.003847335,3,19.30101323,24.18743973,0,-1.309489491,-0.008838218,40.83394065,0,0,0,-1.309489491
23.33333333,0.003851364,3,19.50066428,24.43892186,0,-1.59354611,0.009920307,41.99241926,0,0,0,-1.59354611
23.46666667,0.003855749,3,19.65416367,24.79882455,0,-1.43913804,0.022189032,43.17112985,0,0,0,-1.43913804
23.6,0.003860323,3,19.85034667,24.50714518,0,-1.536752846,0.037265528,44.36544422,0,0,0,-1.536752846
23.73333333,0.003864911,3,20.01960915,24.80016475,0,-1.468665155,0.050210619,45.56025722,0,0,0,-1.468665155
23.86666667,0.003869344,3,20.22839129,24.30813414,0,-1.521399797,0.0648708,46.77801713,0,0,0,-1.521399797
24,0.003873462,3,20.39209315,24.60332564,0,-1.476485637,0.078426342,48.00763205,0,0,0,-1.476485637
24.13333333,0.003877129,3,20.52215992,24.85928986,0,-1.522265529,0.093260729,49.23401234,0,0,0,-1.522265529
