"Time","Perspiration","Speed","Acceleration","Braking","Steering","Phase","Activity","Failure","Distance"
0,0.00550195244473809,0.00532616671428571,1.62120194985714,0,-7.39074167857143,0,0,0,-13.07716289
1,0.00556698322254569,0.00310687014285714,1.63793163057143,0.000678464285714286,-7.49778621585714,0,0,0,-13.0769016657143
2,0.0055823906343975,0.0036730075,1.63960265,2.8268152255,-7.495185127875,0,0,0,-13.07647717625
3,0.00552149460964631,2.76841428571429e-05,1.47176777557143,66.4883593285714,-7.49527870814286,0,0,0,-13.0766404414286
4,0.0054448877638406,8.625e-07,1.314299262125,75.17168057625,-7.4924840125,0,0,0,-13.0764783625
5,0.00536498897719974,0,1.29852112742857,67.8751222728571,-7.45648334928571,0,0,0,-13.07669996
6,0.00528365367567298,0.441989135,2.3572124365,1.81298258525,-96.7010360065,0,0,0,-13.00951688
7,0.00520174877736901,1.51846863214286,18.8756732257143,0.00681401428571429,-286.326217485714,0,0,0,-12.60889092
8,0.00511998134619966,3.975536181125,17.566641875,0,-275.6002895125,0,0,0,-11.37299474
9,0.00504030470170316,6.20479150242857,19.0262787371429,0,-74.2348115908571,0,0,0,-9.14090261342857
10,0.00498336142609547,8.210342789125,19.97326750875,0,57.47222917875,0,0,0,-5.95687509525
11,0.00494629734455351,9.88503229485714,21.3046662785714,0,141.6074645,0,0,0,-1.93965738528571
12,0.00487276782500526,11.8756747325,22.17335579625,0,77.22966343625,0,0,0,2.973587191625
13,0.00479119718054225,13.8534580328571,22.5380178857143,0,-2.66548688528571,0,0,0,8.71112778242857
14,0.00470848352856794,15.87790940625,22.96045647,0,-20.272529715,0,0,0,15.36393332125
15,0.00462566852312991,17.8722069114286,23.9915948414286,0,-16.9393218671429,0,0,0,22.9553759928571
16,0.00454333492905532,19.69559921125,23.82861603375,0,-11.25530875225,0,0,0,31.4519242625
17,0.00446244904047096,21.40740602,24.9006718457143,0,-0.399380443571429,0,0,0,40.7347188271429
18,0.00438777475931236,23.13509382125,24.87445801125,0,3.004871220375,0,0,0,50.811302975
19,0.00435610414505417,24.8395614142857,24.5592666457143,0,2.99811148314286,0,0,0,61.6406539214286
20,0.00438737317131014,26.464900405,24.82138172875,0,2.998074051,0,0,0,73.2345573825
21,0.00437984158487822,27.9857634628571,22.8587786042857,0,2.99811148314286,0,0,0,85.5309997085714
22,0.00431334588535846,28.8445291425,18.599418275,0,2.998074051,0,0,0,98.39538048
23,0.00423919024174913,29.2445794957143,17.6734850185714,0,2.99811148314286,0.285714285714286,0.285714285714286,0,111.509166457143
24,0.00416003569277504,29.67006178125,21.5075528725,0,2.998074051,1,1,0,124.80882555
25,0.00408033386158381,30.2965276671429,20.5002422228571,0,2.99811148314286,1,1,0,138.334179357143
26,0.00400471125906811,30.96927993,20.34759444375,0,2.998074051,1,1,0,152.1759781375
27,0.00395763908188895,31.6021604085714,20.0294412828571,0,2.99844927728571,1,1,0,166.3031156
28,0.00395713124437844,32.00323615875,8.911284060625,0,3.01068666775,1,1,0,180.6878664125
29,0.00398207244658276,31.73282744,2.92679735171429,0,1.61881198771429,1,1,0,195.097191571429
30,0.00401281307094807,31.30941688375,3.159470106625,0,1.48366020475,1,1,0,209.327953675
31,0.00400270700909065,30.89379889,3.78946081,0,3.76339095085714,1,1,0,223.3819153
32,0.00394420792361104,30.51064288625,6.51096497375,0,4.189922479125,1,1,0,237.2414364375
33,0.0038749360657421,30.1376111914286,5.692321696,0,2.20195253071429,1,1,0,250.941443185714
34,0.00383358749581085,29.7625088075,3.72170661825,0,-0.0041921935,1,1,0,264.464691525
35,0.00386623253505825,29.2840106242857,5.21847306185714,0,1.448782013,1,1,0,277.814672814286
36,0.00393789646352224,28.74618976625,7.304715805625,0,2.99693673675,1,1,0,290.909388825
37,0.00401586008033171,28.28393095,9.13513951328571,0,3.01512996271429,1,1,0,303.790253485714
38,0.00409532533573853,27.93708564375,9.416655413625,0,1.552541586875,1,1,0,316.4821371625
39,0.00417474309350091,27.56062883,9.38587932157143,0,2.05894303171429,1,1,0,329.016580114286
40,0.00425250901177922,27.21204463625,9.697703395125,0,2.996212613625,1,1,0,341.3797024625
41,0.00432398831889133,26.8666274857143,10.850714993,0,1.79842236142857,1,1,0,353.597139757143
42,0.00434720324071198,26.64744168125,11.42117298875,0,2.086667498625,1,1,0,365.674582925
43,0.00429153273882475,26.4892104657143,13.4126158114286,0,2.997473989,1,1,0,377.680294671429
44,0.00421882357626539,26.3856832525,13.4621288275,0,2.998074051,1,1,0,389.6173356
45,0.00414624028417925,26.3081801114286,15.5222592914286,0,2.99921219828571,1,1,0,401.519485157143
46,0.00409389107131445,26.335386955,15.34178901875,0,2.4110418325,1,1,0,413.398727075
47,0.00411184154110161,26.4246286357143,16.4710132214286,0,1.499693236,1,1,0,425.3147597
48,0.00417797662828433,26.546118645,15.2799157525,0,1.4990370255,1,1,0,437.276290375
49,0.00424517128250476,26.5850542342857,16.3916891371429,0,1.49905574157143,1,1,0,449.2772423
50,0.0042813937290234,26.714759905,17.43409960125,0,1.4971136065,1,1,0,461.3032729375
51,0.00429624552539262,27.00493042,16.9554850542857,0,2.38346835142857,1,1,0,473.439027142857
52,0.00430807546918632,27.3567340425,16.1702345725,0,2.99903717675,1,1,0,485.715102375
53,0.0042844691123267,27.6999135885714,16.6769774757143,0,2.99811148314286,1,1,0,498.1522878
54,0.00423982489924609,28.0029844825,16.1684221775,0,2.998074051,1,1,0,510.7300365375
55,0.00422323231599614,28.2922474028571,16.3118748414286,0,2.99811148314286,1,1,0,523.447757057143
56,0.00422840860520279,28.56010461625,17.41775202625,0,2.998074051,1,1,0,536.2823656125
57,0.00422270144514503,28.8688917942857,18.3912586671429,0,2.99811148314286,1,1,0,549.253852657143
58,0.00421045497579373,29.21508519125,18.4794186775,0,2.998074051,1,1,0,562.3645926375
59,0.00423916457629592,29.6120470585714,18.8215653528571,0,2.99811148314286,1,1,0,575.646762528571
60,0.00430557588293195,29.988482655,16.6160833,0,2.992196101875,1,1,0,589.112303275
61,0.00437295791956709,30.1551604671429,18.0242746942857,0,1.79952307628571,1,1,0,602.708915185714
62,0.00439503760155752,30.28992028,17.8419935,0,1.4996352795,1,1,0,616.3554967625
63,0.00434124469091472,30.3548920014286,16.19744437,0,1.49905574157143,1,1,0,630.059372171429
64,0.004265768962842,30.36657318875,17.529694215,0,1.4990370255,1,1,0,643.7670440125
65,0.00418708377618276,30.4357913757143,17.2020150942857,0,1.49905574157143,1,1,0,657.503688042857
66,0.00410786667968976,30.58091244875,17.83987657,0,1.4990370255,1,1,0,671.27895405
67,0.00403014326307659,30.6680143385714,8.07652356742857,0,1.49905574157143,1,1,0,685.126968428571
68,0.00396438089885363,30.40817477125,6.775034503,0,1.4990370255,1,1,0,698.9223949875
69,0.00394242931679925,30.05456716,12.3435364371429,0,1.49900639328571,1,1,0,712.584888942857
70,0.00394483400201113,29.86265754125,15.92892953625,0,1.51770395625,1,1,0,726.1010484125
71,0.00395812433351692,29.8434765614286,16.2283038328571,0,2.94003392371429,1,1,0,739.591067628571
72,0.00397789371937254,29.972290785,16.3824025675,0,1.484627748625,1,1,0,753.0922472875
73,0.0039814518995276,30.1388228057143,15.6839215885714,0,1.49870096257143,1,1,0,766.677739957143
74,0.00398925171040183,30.256917005,15.83557367875,0,1.51690916925,1,1,0,780.309856125
75,0.0040423987879065,30.4147402785714,16.1337281928571,0,3.00439374885714,1,1,0,794.019577757143
76,0.00411781755629406,30.61318163,17.90185645625,0,2.998117230875,1,1,0,807.7869003375
77,0.00419475758661322,30.9029850057143,18.1365798657143,0,2.99921219828571,1,1,0,821.687756285714
78,0.00426415857114626,31.14800380625,17.7156293625,0,2.2704168325,1,1,0,835.695962275
79,0.00428545907924934,31.2402316285714,3.65220168985714,0,1.49873233828571,1,1,0,849.8107965
80,0.00427187106002371,30.90814206375,7.978436799375,0,1.809947131,1,1,0,863.842618925
81,0.00425391699458602,30.6120909871429,11.1358936841429,0,2.98921899057143,1,1,0,877.739282971429
82,0.00423405575301637,30.43731156125,11.103145580625,0,1.85308396825,1,1,0,891.521512225
83,0.00425224190179386,30.2315823028571,10.7005615728571,0,1.49850489171429,1,1,0,905.227798028571
84,0.00431944864746629,30.0530278525,13.86399521875,0,1.65753416925,1,1,0,918.831799775
85,0.00439432239101589,29.9870282214286,15.3009536985714,0,3.00439374885714,1,1,0,932.396518171429
86,0.00446328894947824,29.97538712625,15.37966594625,0,2.998117230875,1,1,0,945.9264011625
87,0.00448422413920859,30.0247528371429,15.6892226842857,0,2.99589494042857,1,1,0,959.4898235
88,0.00444428475798149,30.05118675125,15.973591675,0,2.135155533875,1,1,0,973.0443045625
89,0.00438343436903939,30.1139060042857,17.5317777257143,0,1.49700190728571,1,1,0,986.637808714286
90,0.00434120193546205,30.22935320125,17.45049436125,0,1.4990370255,1,1,0,1000.251468675
91,0.00436997955642746,30.3891764028571,17.8082364271429,0,1.49900639328571,1,1,0,1013.95212471429
92,0.00443411056432894,30.49425255125,17.3738949225,0,1.5187333245,1,1,0,1027.690805625
93,0.00447698097362454,30.5594746657143,14.7054945857143,0,3.72820864428571,1,1,0,1041.49507657143
94,0.0044556659521289,30.50792610375,16.56041268375,0,4.1843492345,1,1,0,1055.269966625
95,0.00439076913751715,30.5022514585714,16.8178297228571,0,2.761677009,1,1,0,1069.05937985714
96,0.00432011391480677,30.52982498,17.119118165,0,1.50067043475,1,1,0,1082.8309465
97,0.00427068329434068,30.5741502528571,16.8140661057143,0,1.49905574157143,1,1,0,1096.64057128571
98,0.00425066856288407,30.68473143,16.64696465875,0,1.4990370255,1,1,0,1110.46081475
99,0.00427000352899283,30.8310139228571,16.5946012228571,0,1.49905574157143,1,1,0,1124.36559428571
100,0.00431704767410167,30.93890830375,16.4862544175,0,1.4990370255,1,1,0,1138.3037505
101,0.00437432290288486,31.0203863814286,16.8396462871429,0,1.49905574157143,1,1,0,1152.310283
102,0.00439254006736971,31.0838417725,16.0590847625,0,1.4990370255,1,1,0,1166.3228845
103,0.00435857093167477,31.1474127185714,17.0592675457143,0,1.49795502671429,1,1,0,1180.38950242857
104,0.00432454698911276,31.18231764625,13.434373489375,0,2.22487008925,1,1,0,1194.451765
105,0.00430203908570472,30.9899571328571,2.187939847,0,2.27423284871429,1,1,0,1208.52470514286
106,0.00429189867314394,30.48209008875,2.178732196,0,1.64686102775,1,1,0,1222.392573625
107,0.00428667509932847,29.9506807371429,2.27254947042857,0,4.38335545028571,0.571428571428571,0.571428571428571,0,1236.05497542857
108,0.00431097212979372,29.41007219375,2.325566897625,0.003207770625,4.494040511875,0,0,0,1249.450451875
109,0.00437593723922203,28.6783078357143,2.30579532742857,7.84372530342857,2.41416620857143,0,0,0,1262.60245614286
110,0.00445069552792327,27.18595135875,2.675705488375,18.36097147875,1.49867215425,0,0,0,1275.223247
111,0.00452287335464543,25.89481028,2.47974177757143,14.1263256028571,1.49905574157143,0,0,0,1287.200173
112,0.00456500129838143,24.95888202625,2.440968316375,15.40415575125,1.4990370255,0,0,0,1298.668508375
113,0.00452230375119214,23.8683748228571,2.48203733571429,15.49055833,1.50745151742857,0,0,0,1309.71800614286
114,0.0044486394570781,22.793620085,2.5386672715,18.9638828725,-4.541086283375,0,0,0,1320.255525625
115,0.00437135313881693,20.9346722614286,2.53744704171429,20.7868477642857,-47.7989413928571,0,0,0,1330.16080114286
116,0.00430041659653173,19.45287828,2.423976328875,15.20529191875,-60.1298843025,0,0,0,1339.1043995
117,0.00424250832966092,18.0779444385714,2.53030983771429,21.6269399714286,-22.8269840232857,0,0,0,1347.23973614286
118,0.00416768825966726,15.1528051125,3.053901500625,29.71589234125,49.4640372565,0,0,0,1354.2835335
119,0.00409054135913543,11.6870052728571,2.54407069742857,24.8242235657143,184.261012385714,0,0,0,1360.10254385714
120,0.00401822784932658,9.998053155625,2.372110621375,17.59212185375,356.139583925,0,0,0,1364.89821825
121,0.00397959678894057,9.23565325657143,5.17460658814286,0.0813844618571429,470.127204242857,0,0,0,1368.59283671429
122,0.00402873562710499,8.964937999875,12.06446899125,0.001379815875,521.085307675,0,0,0,1370.0928835
123,0.00410344201590204,9.18016617471429,12.9460823714286,0,502.7717722,0,0,0,1368.92213785714
124,0.00418274310940467,9.84546514675,14.6953856325,0,390.9719181125,0,0,0,1365.38914125
125,0.00426365473773949,10.8022082614286,15.6798805828571,0,145.907847361429,0,0,0,1360.92594042857
126,0.00434532955633576,11.5564375475,16.84059492875,0,-37.067631472625,0,0,0,1356.087788
127,0.00442728262278873,12.4421393114286,18.4012490728571,0,-50.6181196671429,0,0,0,1350.83985585714
128,0.00450918052514335,13.53349232625,19.41023067,0,-32.55008758625,0,0,0,1344.98221425
129,0.00459066138872331,14.7566327657143,19.6105772028571,0,-7.51455851928571,0,0,0,1338.61262271429
130,0.00467107368899181,16.12103386625,22.25345594625,0,5.771797275,0,0,0,1331.600447625
131,0.00474898647017066,17.5602019214286,21.0341541228571,0,4.49142628057143,0,0,0,1323.99699842857
132,0.00481623512764159,19.00700844,21.41942038375,0,4.51508635825,0,0,0,1315.698228875
133,0.00481948186754619,20.46101621,21.9076689285714,0,6.01475144142857,0,0,0,1306.79299571429
134,0.00475624640931604,21.70687871375,20.7140606475,0,2.12134812225,0,0,0,1297.234909125
135,0.00468806814284532,23.0381518257143,20.64421188,0,1.48358320585714,0,0,0,1287.15332128571
136,0.00466068198088626,24.3430045675,21.485248365,0,4.230431259875,0,0,0,1276.42322425
137,0.00467117400791101,25.5927811714286,21.0862344171429,0,5.22069770685714,0,0,0,1265.16721471429
138,0.00466073759085995,26.67773054375,20.31672738375,0,6.000943294625,0,0,0,1253.320225625
139,0.00461570384123771,27.4009367071429,20.9404835371429,0,3.41833506428571,0.857142857142857,0.428571428571429,0,1241.12078842857
140,0.00458201099252382,28.23577336625,21.12396615625,0,2.985218903375,2,1,0,1228.537882125
141,0.00460997780346258,29.0190921357143,18.8761714242857,0,4.37707318485714,2,1,0,1215.61646314286
142,0.00461000927099545,29.5442770275,20.183283765,0,4.4979518625,2,1,0,1202.3665985
143,0.00457476491151245,30.1953681285714,20.7126836657143,0,4.497167225,2,1,0,1188.89552714286
144,0.0045494697917617,30.83895445375,19.5117606875,0,4.497111076875,2,1,0,1175.091127875
145,0.00449255999783026,31.3263592228571,17.4372929342857,0,4.497167225,2,1,0,1161.05713628571
146,0.00441615698445097,31.527015075,16.1664649375,0,4.497111076875,2,1,0,1146.83520775
147,0.00433847574042808,31.62976981,16.65163634,0,4.497167225,2,1,0,1132.58933342857
148,0.00426461951357782,31.8116471925,15.611697495,0,4.497111076875,2,1,0,1118.24574975
149,0.00421720939551761,31.9467903457143,14.0475709357143,0,4.497167225,2,1,0,1103.853942
150,0.00424029262844149,31.9950255125,16.9319891325,0,4.497111076875,2,1,0,1089.39552775
151,0.00430679160793529,32.1637161957143,16.9476470785714,0,4.497167225,2,1,0,1074.92837028571
152,0.00438250899266538,32.21139289125,3.357394705125,0,4.497111076875,2,1,0,1060.350854625
153,0.0044588154187997,31.7605302685714,5.06225023471429,0,4.497167225,2,1,0,1045.90222257143
154,0.0045305794677664,31.11835722875,8.1592230095,0,4.497111076875,2,1,0,1031.692668375
155,0.00456546484209585,30.7380758142857,9.41338190728571,0,4.499383768,2,1,0,1017.74673028571
156,0.00451539309815191,30.50706177375,4.08324129775,0,5.35991526325,2,1,0,1003.895063875
157,0.0044488525351948,30.19514579,6.63084138085714,0,5.75423525414286,2,1,0,990.1937664
158,0.00441741301335306,29.9146204875,9.378903278,0,5.086231164,2,1,0,976.60827365
159,0.00446727349751778,29.6906406971429,9.56467410685714,0,5.99319933714286,2,1,0,963.158763271429
160,0.0045381333774293,29.3968485025,12.57994788875,0,4.850862449875,2,1,0,949.80206725
161,0.00460618639079558,29.2947998271429,13.60507795,0,4.49661637557143,2,1,0,936.568763542857
162,0.00463017108486177,29.2516896175,13.61347912375,0,4.65560822075,2,1,0,923.33316345
163,0.0045736126550766,29.2439051414286,13.7754927714286,0,6.00360594685714,2,1,0,910.133432257143
164,0.0044967257892898,29.2734600925,16.912908965,0,5.268534063375,2,1,0,896.9053905125
165,0.00441643731226867,29.4071953585714,16.6004356828571,0,4.49670400471429,2,1,0,883.664109785714
166,0.00433503995747785,29.55822270875,15.561550235,0,5.226641334375,2,1,0,870.3335226875
167,0.0042538991693255,29.7165292385714,17.2537881485714,0,5.435860994,2,1,0,856.962771628571
168,0.00417763414543519,29.86289546625,17.07531661625,0,4.493094565375,2,1,0,843.4977641375
169,0.00412685187072931,30.06434418,17.19843519,0,4.497167225,2,1,0,829.9797098
170,0.00410102593371599,30.301518695,16.76968386375,0,4.497225408,2,1,0,816.3411927125
171,0.00407218493158742,30.5417749542857,17.5540370228571,0,4.90178324085714,2,1,0,802.609771271429
172,0.00401227254095141,30.774801495,17.4960104975,0,5.683467907125,2,1,0,788.7541754625
173,0.00393474432525478,31.1164473428571,17.3439506942857,0,4.50367358285714,2,1,0,774.7882801
174,0.00385203273852931,31.45726547125,18.22076369,0,4.496815507125,2,1,0,760.64721675
175,0.00376826236851374,31.8168516771429,11.237806756,0,4.499383768,2,1,0,746.362639485714
176,0.00368405570518274,31.5969035425,3.139949580625,0,5.36002959425,2,1,0,732.0028900625
177,0.00359964296066787,31.1058841814286,4.17951262142857,0,5.99827680114286,2,1,0,717.853629342857
178,0.00351512284128425,30.68998904875,3.55563887975,0,5.99671422775,2,1,0,703.883838625
179,0.00343056655397364,30.2457746942857,3.88989599685714,0,5.28526719185714,2,1,0,690.129652142857
180,0.00334602847532909,29.81741732375,7.0156064925,0,1.48850797475,2,1,0,676.5532802625
181,0.00326156228272323,29.3117668757143,8.59454483814286,0,3.18498390485714,2,1,0,663.199299385714
182,0.00317724303520387,28.8176869725,9.438797258875,0,5.99645504925,2,1,0,650.07356795
183,0.00309316760606014,28.5077423228571,11.7014925922857,0,5.99383683171429,2,1,0,637.137501485714
184,0.00300954301060953,28.34772747125,13.41238976625,0,4.710237449875,2,1,0,624.289282675
185,0.0029267563042384,28.31596151,13.6341698385714,0,4.49666572371429,2,1,0,611.497931414286
186,0.00284613187880007,28.28405759375,14.943433925,0,4.497225408,2,1,0,598.701726275
187,0.00277462995062053,28.2944615628571,14.46882649,0,4.900822343,2,1,0,585.929770228571
188,0.00276660759227135,28.3113012275,14.37131038,0,5.998015581,2,1,0,573.1356579
189,0.00279440819668888,28.3664393314286,16.3909258,0,4.552085879,2,1,0,560.342825885714
190,0.00275832788957624,28.4658377025,16.36090020125,0,2.992995150375,2,1,0,547.4998008375
191,0.00268425352921131,28.62679728,16.0113043171429,0,4.60537809071429,2,1,0,534.612179742857
192,0.00260515202682263,28.8261760375,17.0430618675,0,5.9970447915,2,1,0,521.6304966875
193,0.00252702567999175,29.0886763157143,17.4115229614286,0,5.43649848857143,2,1,0,508.560325942857
194,0.0024645518558672,29.38188632125,17.62290437125,0,4.493094565375,2,1,0,495.348307225
195,0.00244665353112604,29.6799826957143,16.5653324885714,0,4.49606651042857,2,1,0,482.0155679
196,0.00240034942479106,30.00583517,16.5795457775,0,5.085952383875,2,1,0,468.5265985125
197,0.0023708074555776,30.3940083457143,17.1484329342857,0,4.707517745,2,1,0,454.887889342857
198,0.00241346238525328,30.60694406875,16.45432743625,0,3.00304481575,2,1,0,441.0928214375
199,0.00248587437632703,30.6587951828571,12.5591226071429,0,4.75642436871429,2,1,0,427.2601796
200,0.00256313700655177,30.44919601375,5.165278004375,0,5.99561182975,2,1,0,413.4370186125
201,0.00264101836420763,30.10794671,14.9863375771429,0,3.75250766442857,2,1,0,399.767436614286
202,0.00271733986589882,30.00409738875,15.2784105925,0,2.999647666,2,1,0,386.188709175
203,0.00278659436059534,30.0266454385714,14.3310431828571,0,3.96390631328571,2,1,0,372.638756057143
204,0.00280166802936731,30.0150678975,17.07003472,0,5.992279648375,2,1,0,359.079266075
205,0.00274096200408706,30.1855870757143,17.0622085785714,0,5.99718386442857,2,1,0,345.490070685714
206,0.00266522933355254,30.4400813975,17.0135903475,0,5.685396886375,2,1,0,331.7950887875
207,0.00258723902879358,30.7207600057143,18.6687145928571,0,4.50367358285714,2,1,0,317.989819971429
208,0.00251024582705276,31.05590405625,18.90371058375,0,4.496815507125,2,1,0,304.0330601
209,0.00244409579322264,31.36836166,17.9682708342857,0,4.497167225,2,1,0,289.935147557143
210,0.00242882612577879,31.598677485,18.0976474675,0,4.495187658125,2,1,0,275.711685325
