"Time","Perspiration","Speed","Acceleration","Braking","Steering","Phase","Activity","Failure","Distance"
0,0.00430679249559639,0,0,53.3948010842857,2.95629667114286,0,0,0,-10.93868848
1,0.00434988003336929,0,0,56.8862050628571,2.99911448642857,0,0,0,-10.9384699728571
2,0.00439200866483804,4.337675e-05,0,68.2471140725,2.998074051,0,0,0,-10.93811489875
3,0.00440831501110978,0.00152123471428571,0,72.3643409885714,2.99816083157143,0,0,0,-10.9382622085714
4,0.00437994012968979,0.1159658895,0.057232836125,23.543178891625,2.979737812,0,0,0,-10.9303466525
5,0.00436366705850638,1.00612906985714,12.0102881417143,0.363007914714286,1.472644744,0,0,0,-10.7170584914286
6,0.00435545148035441,3.290965417875,17.80592773375,0.07028414725,17.998751762125,0,0,0,-9.792366522
7,0.00432063637529233,6.83348900714286,19.6393976585714,0.017608599,35.4320246414286,0,0,0,-7.58972781142857
8,0.00427487069201959,10.315223238375,22.28489965875,4.725e-06,32.0185381975,0,0,0,-3.7043982675
9,0.00422733801024608,13.2035963228571,29.5744933528571,0,10.0458754494286,0,0,0,1.47660238457143
10,0.00417909722601876,16.97497815875,29.4246364275,0,-18.2040755125,0,0,0,8.13141912125
11,0.00413049603886801,20.7158988942857,28.6274584142857,0,-28.4418352228571,0,0,0,16.50145426
12,0.00408166475961542,24.0565679575,29.7750932575,0,-17.02654155875,0,0,0,26.5757184975
13,0.00403269315894378,26.9228863785714,22.8114166928571,0,-10.3103122332857,0,0,0,38.0896933414286
14,0.00398362958195694,28.4374463375,20.63245026625,0,-3.1807242865,0,0,0,50.60538337375
15,0.00393451776124065,29.3073870742857,10.7306178801429,0,-0.293378137285714,0,0,0,63.67894644
16,0.00388539137670269,29.20224884,2.367847006125,0,-0.002478493125,0,0,0,76.92269244625
17,0.00383628522771592,28.6914241314286,0.0126233431428571,0,0.884412609714286,0,0,0,90.0065104628571
18,0.00378724131421318,28.2267251075,0.02663665,0,1.500000151,0,0,0,102.86845026125
19,0.0037383085466331,27.7834475785714,1.25293748428571,0,1.49905574157143,0.571428571428571,1.71428571428571,0,115.527300071429
20,0.00368957404243605,27.3769304075,5.112445649125,0,1.4990370255,1,3,0,127.9929756875
21,0.00364116587589635,27.0403401542857,10.5366473818571,0,1.49905574157143,1,3,0,140.279789428571
22,0.00359340833098341,26.98985205,15.715084015,0,1.4990370255,1,3,0,152.4612576625
23,0.00354714888991258,27.4880217357143,16.8971547885714,0,1.49905574157143,1,3,0,164.749826185714
24,0.00350912651415865,28.269976515,16.7920854775,0,1.4990370255,1,3,0,177.3462348375
25,0.00350272649517371,29.0851166585714,16.3000410885714,0,1.49905574157143,1,3,0,190.301414385714
26,0.00350373705556393,29.82544203,15.6008341625,0,1.4990370255,1,3,0,203.6171469375
27,0.00349308818227238,30.2513176342857,9.663038531,0,1.49905574157143,1,3,0,217.207279371429
28,0.00349906095798367,30.2109040175,8.371764862125,0,1.4990370255,1,3,0,230.8672511125
29,0.00353193900800515,30.1412107342857,7.925454936,0,1.49905574157143,1,3,0,244.499398385714
30,0.00357497824100584,30.1199372575,8.042656625875,0,1.4990370255,1,3,0,258.111148375
31,0.00361826449672243,30.1343953471429,7.72566288957143,0,1.49905574157143,1,3,0,271.723760271429
32,0.00365454919983071,30.16158140625,7.542870176625,0,1.4990370255,1,3,0,285.3425069625
33,0.0036507808165057,30.1819534957143,7.43172913814286,0,1.49905574157143,1,3,0,298.977311128571
34,0.0036152201233031,30.21245145875,7.449097088125,0,1.4990370255,1,3,0,312.61565085
35,0.00359461888922624,30.2375924828571,7.41741956071429,0,1.49905574157143,1,3,0,326.273356028571
36,0.00360794033599725,30.2440265775,7.2848762365,0,1.4990370255,1,3,0,339.9292784125
37,0.00362016699845857,30.2355693728571,7.22052145528571,0,1.49905574157143,1,3,0,353.597542542857
38,0.00360986819134772,30.24602519375,7.237044168125,0,1.4990370255,1,3,0,367.2557254375
39,0.00357556932351604,30.2700871557143,7.38784553428571,0,1.49905574157143,1,3,0,380.926910042857
40,0.00354512409735936,30.2890631425,7.41020091875,0,1.4990370255,1,3,0,394.606386775
41,0.00353397271115679,30.2945479942857,7.37143244714286,0,1.49905574157143,1,3,0,408.295241942857
42,0.00352857198599328,30.30371361875,7.314361850625,0,1.4990370255,1,3,0,421.9802476625
43,0.00350327870617932,30.3508615242857,7.24984872614286,0,1.49905574157143,1,3,0,435.688605585714
44,0.00347577182479035,30.38201029625,7.1235752255,0,1.4990370255,1,3,0,449.4034171875
45,0.00346078980682405,30.4049016385714,7.11797199714286,0,1.49905574157143,1,3,0,463.137635571429
46,0.00343890465523747,30.4297403875,7.41934954925,0,1.499151356375,1,3,0,476.8802500125
47,0.00339983170359935,30.4365090857143,7.43807071442857,0,1.90271085957143,1,3,0,490.635280357143
48,0.00335420398020627,30.43931486,7.324311729125,0,2.9960307415,1,3,0,504.385731475
49,0.00330913409762447,30.4397486028571,7.391072889,0,2.59445636571429,1,3,0,518.145758214286
50,0.00327643015527629,30.44200249625,8.977752999,0,1.5009660045,1,3,0,531.893315225
51,0.00326746394194939,30.4805241385714,8.53098280514286,0,1.49905574157143,1,3,0,545.657907685714
52,0.00324777764164576,30.53230245125,8.08636374775,0,1.4990370255,1,3,0,559.429673725
53,0.00321634838625248,30.5970279457143,7.99027989157143,0,1.49905574157143,1,3,0,573.243273114286
54,0.00318930825663487,30.66210917125,8.0065594305,0,1.4990370255,1,3,0,587.0771452125
55,0.00318387590760254,30.7328687371429,7.844360894,0,1.49905574157143,1,3,0,600.947597014286
56,0.00319995490025595,30.780309555,7.74567252875,0,1.4990370255,1,3,0,614.838491325
57,0.0032142107953702,30.8222012714286,7.750998304,0,1.49905574157143,1,3,0,628.760252485714
58,0.00322221191659152,30.87658113375,7.80599712825,0,1.4990370255,1,3,0,642.6907727625
59,0.0032352019116518,30.9103297585714,7.77014756742857,0,1.49905574157143,1,3,0,656.6550801
60,0.00325005085089857,30.94922789875,8.036616548375,0,1.4990370255,1,3,0,670.6188192
61,0.00324857675307116,30.97523717,7.954681602,0,1.49905574157143,1,3,0,684.611642528571
62,0.00322440432204289,31.00606831,7.946885845875,0,1.4990370255,1,3,0,698.6016907625
63,0.00319213188670818,31.04056611,7.991259693,0,1.49905574157143,1,3,0,712.626044742857
64,0.00317222551723027,31.03120559,7.998693104375,0,1.4990370255,1,3,0,726.636697425
65,0.00318405178061768,31.0143947014286,7.90502260471429,0,1.49905574157143,1,3,0,740.659416614286
66,0.00321459314063306,31.02151054125,7.909465685,0,1.4990370255,1,3,0,754.6648415375
67,0.00324007886384246,31.0671239057143,7.821523732,0,1.49905574157143,1,3,0,768.7019877
68,0.00325817649335877,31.05567911875,7.78492202525,0,1.4990370255,1,3,0,782.7274309
69,0.00326594184909808,31.0777600114286,7.72813806585714,0,1.49905574157143,1,3,0,796.772758971429
70,0.00326714429199488,31.07672216375,7.702619792875,0,1.4990370255,1,3,0,810.8060208875
71,0.00327623851667763,31.0829521928571,7.60538347171429,0,1.49905574157143,1,3,0,824.856688028571
72,0.00330407381175821,31.09008582,7.633025146625,0,1.4990370255,1,3,0,838.8909774625
73,0.00333081950146277,31.0917127514286,7.72593794385714,0,1.49905574157143,1,3,0,852.948079614286
74,0.00333674627048666,31.090202975,7.665760158375,0,1.4990370255,1,3,0,866.9842536875
75,0.00332481234459348,31.1189297885714,7.53574893885714,0,1.49446544257143,1,3,0,881.046201842857
76,0.00332139402224339,31.077689055,7.699128705625,0,2.511043560875,1,3,0,895.0856310875
77,0.00332862877858195,31.0459430528571,7.85250024971429,0,2.994929348,1,3,0,909.129263671429
78,0.00333094017966215,31.0305569425,7.768322911875,0,1.7121633985,1,3,0,923.1432734125
79,0.00333541391607297,31.0069813814286,7.693648994,0,1.49855424,1,3,0,937.1696842
80,0.00336141456668644,30.926099685,7.564288915375,0,1.4990370255,1,3,0,951.1495996125
81,0.00339020548951656,30.8590701314286,7.55365822814286,0,1.49905574157143,1,3,0,965.123220142857
82,0.00339800797942842,30.77412305625,8.134103479375,0,1.4990370255,1,3,0,979.0344484625
83,0.00339083566788711,30.7157242771429,8.53794716357143,0,1.49905574157143,1,3,0,992.940211685714
84,0.00339073813612519,30.668067725,8.1369461815,0,1.4990370255,1,3,0,1006.79255075
85,0.00341338242113536,30.5986444014286,7.855746565,0,1.49905574157143,1,3,0,1020.64583514286
86,0.00345293490428606,30.53131144625,7.778482726,0,1.4990370255,1,3,0,1034.441553
87,0.00349915532482384,30.4600561271429,7.68032276357143,0,1.49905574157143,1,3,0,1048.23482214286
88,0.00354693847237894,30.4184689725,7.671503787,0,1.4990370255,1,3,0,1061.977383
89,0.00359510869609791,30.3470709285714,7.78155643471429,0,1.49905574157143,1,3,0,1075.71634914286
90,0.00364335568046959,30.2819183075,7.85837502625,0,1.4990370255,1,3,0,1089.40215325
91,0.0036914620910839,30.2088792057143,7.79155139128571,0,1.49905574157143,1,3,0,1103.07965671429
92,0.00373915232048674,30.15165073125,7.627032663125,0,1.4990370255,1,3,0,1116.705116125
93,0.00378596926200759,30.0826064957143,7.52678382542857,0,1.49905574157143,1,3,0,1130.329199
94,0.00383041635659182,30.02802329625,7.51629070975,0,1.4990370255,1,3,0,1143.897643375
95,0.00386343346053124,29.9420443814286,7.543571238,0,1.49905574157143,1,3,0,1157.45773114286
96,0.0038477032274668,29.87314025125,7.473897044125,0,1.4990370255,1,3,0,1170.95852175
97,0.00380717408509066,29.8374497357143,7.53664260642857,0,1.49905574157143,1,3,0,1184.46127085714
98,0.00376290017358777,29.77893131625,7.8880980065,0,1.4990370255,1,3,0,1197.913907125
99,0.00371794791129939,29.73399541,8.47917368685714,0,1.49905574157143,1,3,0,1211.368599
100,0.00367371051216717,29.663652905,7.516674324625,0,1.4990370255,1,3,0,1224.77417525
101,0.00363305107043555,29.41167371,3.46230365242857,0,1.49905574157143,0.428571428571429,1.28571428571429,0,1238.14988471429
102,0.00361917433260114,28.860405355,2.126316943875,0,1.4990370255,0,0,0,1251.293886875
103,0.0036517870639201,28.2923561414286,0.00120766642857143,0,1.49905574157143,0,0,0,1264.22290814286
104,0.00369583360862551,27.7819772275,0,0.027294339375,1.4990370255,0,0,0,1276.871581125
105,0.00374081105988486,27.31108908,0,10.5353800088571,1.49905574157143,0,0,0,1289.33411971429
106,0.00377662430320872,26.53421714875,0,26.96039829875,1.50240472225,0,0,0,1301.509102
107,0.0038055833428672,24.8728342785714,0,33.0646878185714,0.200173236142857,0,0,0,1313.18064
108,0.00384740197936389,22.65172272875,0,34.03156728875,-20.547746641875,0,0,0,1323.89338175
109,0.00389474925783051,20.39448552,0,33.1442042171429,-41.7270469842857,0,0,0,1333.60268985714
110,0.00394295535077776,18.01129564375,0,36.40387925,-31.06382603325,0,0,0,1342.103399125
111,0.00399135563740837,14.8378467242857,0,38.9738449614286,54.740519134,0,0,0,1349.32641671429
112,0.00403975305492369,11.77358207375,0,33.281288035,198.4251855,0,0,0,1355.187327875
113,0.0040880126876501,10.103960319,0.00210121971428571,27.6138724157143,372.920747114286,0,0,0,1360.07861385714
114,0.00413597087579817,9.447185107625,1.846070214,3.754757967625,471.6367105625,0,0,0,1363.3649505
115,0.00418340836169874,9.25217505871429,8.66794898071429,0.412624088285714,503.049351757143,0,0,0,1364.26582385714
116,0.00422980191668366,9.48156494,15.8267263125,0.238867708125,498.3177239375,0,0,0,1362.325101
117,0.00427383195913648,10.7825073685714,15.5911356285714,0.520222846571429,353.105625057143,0,0,0,1358.28267771429
118,0.00430542423325938,12.37904468625,15.92174814625,0.201686423625,98.563481965,0,0,0,1353.229488
119,0.00428955241658987,13.6214814485714,16.1279036028571,0.00415837814285714,-15.0532668105714,0,0,0,1347.85688642857
120,0.00424758058788627,14.8858028125,18.52495859875,8.43625e-06,-68.004654685,0,0,0,1341.815272625
121,0.0042017302600944,16.4132186257143,21.0247568442857,0,-66.8603535542857,0,0,0,1334.99230914286
122,0.00415443859990343,18.31144235875,24.23770209125,0,-18.54250959625,0,0,0,1327.207214875
123,0.0041064514186644,20.5868564571429,23.9656594828571,0,-5.67370797928571,0,0,0,1318.49016414286
124,0.00405803263030178,22.79795777625,23.6185514125,0,5.9075965115,0,0,0,1308.661782
125,0.00400934974509268,24.81411228,22.3031756685714,0,3.75500944585714,0,0,0,1297.91166871429
126,0.00396048318222661,26.55266591125,21.201894115,0,3.860627697125,0,0,0,1286.2687775
127,0.00391150020743055,28.03369541,18.1064872214286,0,4.49922105942857,0,0,0,1273.92903871429
128,0.00386244093803248,28.69859832,18.1942737975,0,4.497111076875,0,0,0,1261.07314175
129,0.0038133441983999,29.4142940914286,17.1735130085714,0,4.497167225,0,0,0,1247.96090828571
130,0.00376424213137985,30.14200351125,16.7423047275,0,4.497111076875,1.75,2.625,0,1234.4831195
131,0.00371516840320515,30.8770965671429,15.9918613271429,0,4.497167225,2,3,0,1220.71231342857
132,0.00366616548274848,31.5676103825,15.93480594125,0,4.497111076875,2,3,0,1206.586447375
133,0.00361728277678559,32.1301217071429,9.41740980614286,0,4.497167225,2,3,0,1192.20294642857
134,0.00356861015691908,32.0288705275,0.048422342625,0,4.497111076875,2,3,0,1177.673586625
135,0.00352028175356675,31.72961363,0,0,4.497167225,2,3,0,1163.28074985714
136,0.00347265789035924,31.43563941375,0,0,4.497111076875,2,3,0,1148.996285125
137,0.0034269653580356,31.1342480828571,0,0,4.497167225,2,3,0,1134.87710442857
138,0.0033925383840447,30.83246679625,0,0,4.497111076875,2,3,0,1120.86054275
139,0.00337154744707581,30.5348043871429,0,0,4.497167225,2,3,0,1107.01050071429
140,0.00336810064353409,30.23716034875,0,0,4.497111076875,2,3,0,1093.2714175
141,0.00338656355960077,29.9443801214286,0,0,4.497167225,2,3,0,1079.69176328571
142,0.00341246000951439,29.66757667125,0,0,4.497111076875,2,3,0,1066.210813875
143,0.00343617703444244,29.3007586671429,0.00324938814285714,0,4.49750501914286,2,3,0,1052.89840614286
144,0.00346656531113877,28.8460458525,3.070155177375,0,4.503845744,2,3,0,1039.751837375
145,0.00350344018312467,28.54192508,12.1682626285714,0,1.91927932257143,2,3,0,1026.81462957143
146,0.00353264545171312,28.62004346625,11.74274974875,0,1.492059827125,2,3,0,1013.89979875
147,0.00354282560988537,28.8324468628571,11.4583550185714,0,4.07660585014286,2,3,0,1000.9409272
148,0.00353328072043093,29.03367814125,11.03469368875,0,4.503231557875,2,3,0,987.8512617875
149,0.00352121392744533,29.2280737085714,11.5383048128571,0,5.69575563214286,2,3,0,974.702966542857
150,0.00352325655553924,29.37694181625,10.979105365,0,5.99543551775,2,3,0,961.4457319375
151,0.00353851992716506,29.5092054271429,11.8243611514286,0,5.75328213471429,2,3,0,948.156456428571
152,0.00353811921214824,29.6068217675,10.86853029375,0,4.49913931975,2,3,0,934.7853616375
153,0.00351611277063853,29.65765823,10.3833885831429,0,2.88990061771429,2,3,0,921.4119338
154,0.00348499526313942,29.69286379375,10.033555583625,0,1.50001337525,2,3,0,907.99327165
155,0.0034527115961621,29.7357755585714,9.91107822085714,0,1.49905574157143,2,3,0,894.582874785714
156,0.00343735398109344,29.73097041875,9.619522570125,0,1.497163987125,2,3,0,881.13924095
157,0.00344532262789502,29.7181928557143,9.29536589642857,0,2.05878022,2,3,0,867.725210257143
158,0.00346298608118503,29.74131416,9.3882378185,0,3.002090562875,2,3,0,854.280742475
159,0.00346330338962117,29.7297811585714,9.51783899485714,0,2.99806213485714,2,3,0,840.857865314286
160,0.00343650334493318,29.718202545,9.2659623515,0,3.156571195,2,3,0,827.420858275
161,0.00339616010177756,29.7107915771429,9.04814213414286,0,4.50344949042857,2,3,0,814.005842742857
162,0.00335823425788818,29.70978859125,9.039177765125,0,4.497154256625,2,3,0,800.5643270375
163,0.00332909576791528,29.7229494085714,9.13329572585714,0,4.497167225,2,3,0,787.151863414286
164,0.00331446622715893,29.73831582,9.2551994305,0,4.496996746,2,3,0,773.7059095125
165,0.00332057598879144,29.7095231542857,9.64734640728571,0,4.09351210728571,2,3,0,760.283813585714
166,0.00335172239230416,29.7095688375,9.43653719225,0,3.00000303025,2,3,0,746.8530884
167,0.00339460416971719,29.70578687,11.0510085375714,0,2.99811148314286,2,3,0,733.4440123
168,0.00343783539813301,29.74709448875,11.52404493125,0,2.998074051,2,3,0,720.0085739625
169,0.00346810548815704,29.80097377,10.2659880028571,0,2.99811148314286,2,3,0,706.565120614286
170,0.00347869487070868,29.822622455,10.184742747875,0,2.998074051,2,3,0,693.0911809875
171,0.00348606399362057,29.8503385557143,9.672676202,0,2.99811148314286,2,3,0,679.617542485714
172,0.00349108622558807,29.86296215125,9.509526035,0,2.998074051,2,3,0,666.11400975
173,0.0035023341117581,29.8986389157143,9.73385434028571,0,2.99811148314286,2,3,0,652.619413685714
174,0.0035215354673238,29.9197752875,9.68952848,0,2.998074051,2,3,0,639.094468375
175,0.00353367045828151,29.9413487157143,9.67232263571429,0,2.99811148314286,2,3,0,625.576354071429
176,0.00352961297140322,29.96462959,9.408749289125,0,2.998074051,2,3,0,612.0348521625
177,0.00352132950036318,29.9763379828571,9.47466787985714,0,2.99811148314286,2,3,0,598.499516
178,0.00350505129225146,29.9760955225,9.243140139875,0,2.998074051,2,3,0,584.9549012625
179,0.00349436328896571,29.98689078,8.94752373542857,0,2.99811148314286,2,3,0,571.417117942857
180,0.00350145848522892,29.99719958875,9.049437337375,0,2.998074051,2,3,0,557.8575446375
181,0.00349426971544586,29.9866931742857,9.029309043,0,2.99352118442857,2,3,0,544.312195742857
182,0.00347554229815878,30.00007116625,8.86179206225,0,4.009921697375,2,3,0,530.7573094
183,0.00349059689792262,30.0234517842857,10.3678644281429,0,4.49637122457143,2,3,0,517.2090131
184,0.00353247010663654,30.0528046225,11.519303525,0,4.497111076875,2,3,0,503.631563
185,0.00357859576783827,30.1464092871429,11.2266331414286,0,4.497167225,2,3,0,490.042547342857
186,0.00362572819854033,30.30114103625,11.273166365,0,4.497111076875,2,3,0,476.379993725
187,0.00367299726530946,30.4900912485714,10.7889717971429,0,4.497167225,2,3,0,462.6615155
188,0.00371966037867224,30.71109049,11.63929214875,0,4.497111076875,2,3,0,448.8306277
189,0.00376280041646707,30.9039219857143,11.5637457857143,0,4.497167225,2,3,0,434.918135414286
190,0.00379180180887338,31.0911413775,11.36838774375,0,4.497111076875,2,3,0,420.905968725
191,0.00380606579336035,31.28257302,11.3303726871429,0,4.497167225,2,3,0,406.823892985714
192,0.00380316735124415,31.4394061025,11.35290776125,0,4.497111076875,2,3,0,392.6457361375
193,0.00378757073027948,31.5821904028571,11.1045858142857,0,4.497167225,2,3,0,378.420623828571
194,0.00376465105863623,31.726400495,10.4849078375,0,4.497111076875,2,3,0,364.1142689875
195,0.00375301251666238,31.8807074371429,9.97801076414286,0,4.497167225,2,3,0,349.748731542857
196,0.00377631708807099,32.0031052,9.80154831125,0,4.497111076875,2,3,0,335.3117665375
197,0.00381662209520467,32.1148228928571,9.70505918871429,0,4.497167225,2,3,0,320.831209014286
198,0.00385446632140727,32.2266704825,9.57920007225,0,4.497111076875,2,3,0,306.2926822875
199,0.00386430201074088,32.3099604028571,9.61322639171429,0,4.497167225,2,3,0,291.713344428571
200,0.00383546514394473,32.42461646,9.571048780625,0,4.499034495875,2,3,0,277.0807782125
201,0.00379248671022537,32.5239588385714,9.74495256171429,0,3.61275461571429,2,3,0,262.416002728571
202,0.00374695330869978,32.6061061825,9.785833733,0,2.9971109255,2,3,0,247.6979385125
203,0.00370107733797533,32.6768298028571,9.39414696828571,0,2.99811148314286,2,3,0,232.955143928571
204,0.00365610344549199,32.75174244875,9.581938094125,0,2.998074051,2,3,0,218.166742325
205,0.00361622529123591,32.7770972914286,4.15546464185714,0,2.99811148314286,2,3,0,203.360539214286
206,0.00360380585538501,32.45588788875,0.001781226125,0,2.998074051,2,3,0,188.610603775
207,0.00361225869079396,32.0101432914286,0,0,2.99811148314286,2,3,0,174.044606742857
208,0.00363054479806324,31.56357838875,0,0,2.998074051,2,3,0,159.6814457875
209,0.00365757257750514,31.12566356,0,0,2.99811148314286,2,3,0,145.521286857143
210,0.00368530321355314,30.6857142975,0,0,2.998074051,2,3,0,131.5549578
211,0.00372043244501812,30.26883862,0,0,2.99811148314286,1.14285714285714,1.71428571428571,0,117.787259657143
212,0.00375062443403223,29.867556685,0,0,2.998074051,0,0,0,104.20124969375
213,0.00377601244671527,29.4787325957143,0,0,2.99811148314286,0,0,0,90.7937674485714
214,0.00381721559887826,28.92607209625,0,0.00244759475,2.998074051,0,0,0,77.59906607125
