"Time","Perspiration","Speed","Acceleration","Braking","Steering","Phase","Activity","Failure","Distance"
0,0.00530979271428571,0,0,53.3948010842857,2.95629667114286,0,0,0,-10.93868848
1,0.00491840671428571,0,0,56.8862050628571,2.99911448642857,0,0,0,-10.9384699728571
2,0.004618008125,4.337675e-05,0,68.2471140725,2.998074051,0,0,0,-10.93811489875
3,0.00444695014285714,0.00152123471428571,0,72.3643409885714,2.99816083157143,0,0,0,-10.9382622085714
4,0.004380252875,0.1159658895,0.057232836125,23.543178891625,2.979737812,0,0,0,-10.9303466525
5,0.00438474,1.00612906985714,12.0102881417143,0.363007914714286,1.472644744,0,0,0,-10.7170584914286
6,0.004386401375,3.290965417875,17.80592773375,0.07028414725,17.998751762125,0,0,0,-9.792366522
7,0.00432036314285714,6.83348900714286,19.6393976585714,0.017608599,35.4320246414286,0,0,0,-7.58972781142857
8,0.00417679925,10.315223238375,22.28489965875,4.725e-06,32.0185381975,0,0,0,-3.7043982675
9,0.00406130514285714,13.2035963228571,29.5744933528571,0,10.0458754494286,0,0,0,1.47660238457143
10,0.003991133125,16.97497815875,29.4246364275,0,-18.2040755125,0,0,0,8.13141912125
11,0.00389322957142857,20.7158988942857,28.6274584142857,0,-28.4418352228571,0,0,0,16.50145426
12,0.00376872,24.0565679575,29.7750932575,0,-17.02654155875,0,0,0,26.5757184975
13,0.00367801471428571,26.9228863785714,22.8114166928571,0,-10.3103122332857,0,0,0,38.0896933414286
14,0.003613647125,28.4374463375,20.63245026625,0,-3.1807242865,0,0,0,50.60538337375
15,0.003539732,29.3073870742857,10.7306178801429,0,-0.293378137285714,0,0,0,63.67894644
16,0.0034756695,29.20224884,2.367847006125,0,-0.002478493125,0,0,0,76.92269244625
17,0.003429901,28.6914241314286,0.0126233431428571,0,0.884412609714286,0,0,0,90.0065104628571
18,0.003394854625,28.2267251075,0.02663665,0,1.500000151,0,0,0,102.86845026125
19,0.00337576742857143,27.7834475785714,1.25293748428571,0,1.49905574157143,0.571428571428571,1.71428571428571,0,115.527300071429
20,0.00338688025,27.3769304075,5.112445649125,0,1.4990370255,1,3,0,127.9929756875
21,0.00342644842857143,27.0403401542857,10.5366473818571,0,1.49905574157143,1,3,0,140.279789428571
22,0.003463974125,26.98985205,15.715084015,0,1.4990370255,1,3,0,152.4612576625
23,0.003481261,27.4880217357143,16.8971547885714,0,1.49905574157143,1,3,0,164.749826185714
24,0.00347674175,28.269976515,16.7920854775,0,1.4990370255,1,3,0,177.3462348375
25,0.00349068828571429,29.0851166585714,16.3000410885714,0,1.49905574157143,1,3,0,190.301414385714
26,0.003497558,29.82544203,15.6008341625,0,1.4990370255,1,3,0,203.6171469375
27,0.00347860671428571,30.2513176342857,9.663038531,0,1.49905574157143,1,3,0,217.207279371429
28,0.003482485125,30.2109040175,8.371764862125,0,1.4990370255,1,3,0,230.8672511125
29,0.00353641728571429,30.1412107342857,7.925454936,0,1.49905574157143,1,3,0,244.499398385714
30,0.003662682625,30.1199372575,8.042656625875,0,1.4990370255,1,3,0,258.111148375
31,0.00376218228571429,30.1343953471429,7.72566288957143,0,1.49905574157143,1,3,0,271.723760271429
32,0.003734609,30.16158140625,7.542870176625,0,1.4990370255,1,3,0,285.3425069625
33,0.00364059057142857,30.1819534957143,7.43172913814286,0,1.49905574157143,1,3,0,298.977311128571
34,0.003576952625,30.21245145875,7.449097088125,0,1.4990370255,1,3,0,312.61565085
35,0.00358380471428571,30.2375924828571,7.41741956071429,0,1.49905574157143,1,3,0,326.273356028571
36,0.003612336875,30.2440265775,7.2848762365,0,1.4990370255,1,3,0,339.9292784125
37,0.00363287314285714,30.2355693728571,7.22052145528571,0,1.49905574157143,1,3,0,353.597542542857
38,0.00362333675,30.24602519375,7.237044168125,0,1.4990370255,1,3,0,367.2557254375
39,0.00357819028571429,30.2700871557143,7.38784553428571,0,1.49905574157143,1,3,0,380.926910042857
40,0.003541702625,30.2890631425,7.41020091875,0,1.4990370255,1,3,0,394.606386775
41,0.00353439557142857,30.2945479942857,7.37143244714286,0,1.49905574157143,1,3,0,408.295241942857
42,0.003537530125,30.30371361875,7.314361850625,0,1.4990370255,1,3,0,421.9802476625
43,0.00350633614285714,30.3508615242857,7.24984872614286,0,1.49905574157143,1,3,0,435.688605585714
44,0.003474050375,30.38201029625,7.1235752255,0,1.4990370255,1,3,0,449.4034171875
45,0.00346481171428571,30.4049016385714,7.11797199714286,0,1.49905574157143,1,3,0,463.137635571429
46,0.003445807625,30.4297403875,7.41934954925,0,1.499151356375,1,3,0,476.8802500125
47,0.00339894,30.4365090857143,7.43807071442857,0,1.90271085957143,1,3,0,490.635280357143
48,0.003334260625,30.43931486,7.324311729125,0,2.9960307415,1,3,0,504.385731475
49,0.00327243371428571,30.4397486028571,7.391072889,0,2.59445636571429,1,3,0,518.145758214286
50,0.003257561375,30.44200249625,8.977752999,0,1.5009660045,1,3,0,531.893315225
51,0.00326424471428571,30.4805241385714,8.53098280514286,0,1.49905574157143,1,3,0,545.657907685714
52,0.003243867375,30.53230245125,8.08636374775,0,1.4990370255,1,3,0,559.429673725
53,0.00320597142857143,30.5970279457143,7.99027989157143,0,1.49905574157143,1,3,0,573.243273114286
54,0.003171894375,30.66210917125,8.0065594305,0,1.4990370255,1,3,0,587.0771452125
55,0.00316677642857143,30.7328687371429,7.844360894,0,1.49905574157143,1,3,0,600.947597014286
56,0.003191727625,30.780309555,7.74567252875,0,1.4990370255,1,3,0,614.838491325
57,0.00320946671428571,30.8222012714286,7.750998304,0,1.49905574157143,1,3,0,628.760252485714
58,0.003215676375,30.87658113375,7.80599712825,0,1.4990370255,1,3,0,642.6907727625
59,0.00323141928571429,30.9103297585714,7.77014756742857,0,1.49905574157143,1,3,0,656.6550801
60,0.003253206875,30.94922789875,8.036616548375,0,1.4990370255,1,3,0,670.6188192
61,0.00325325757142857,30.97523717,7.954681602,0,1.49905574157143,1,3,0,684.611642528571
62,0.0032220445,31.00606831,7.946885845875,0,1.4990370255,1,3,0,698.6016907625
63,0.00318013142857143,31.04056611,7.991259693,0,1.49905574157143,1,3,0,712.626044742857
64,0.00315189075,31.03120559,7.998693104375,0,1.4990370255,1,3,0,726.636697425
65,0.00316851071428571,31.0143947014286,7.90502260471429,0,1.49905574157143,1,3,0,740.659416614286
66,0.003208894875,31.02151054125,7.909465685,0,1.4990370255,1,3,0,754.6648415375
67,0.00323726328571429,31.0671239057143,7.821523732,0,1.49905574157143,1,3,0,768.7019877
68,0.003257780375,31.05567911875,7.78492202525,0,1.4990370255,1,3,0,782.7274309
69,0.00326391842857143,31.0777600114286,7.72813806585714,0,1.49905574157143,1,3,0,796.772758971429
70,0.003260262625,31.07672216375,7.702619792875,0,1.4990370255,1,3,0,810.8060208875
71,0.00326620771428571,31.0829521928571,7.60538347171429,0,1.49905574157143,1,3,0,824.856688028571
72,0.003302061625,31.09008582,7.633025146625,0,1.4990370255,1,3,0,838.8909774625
73,0.00333608685714286,31.0917127514286,7.72593794385714,0,1.49905574157143,1,3,0,852.948079614286
74,0.003341321875,31.090202975,7.665760158375,0,1.4990370255,1,3,0,866.9842536875
75,0.00331944242857143,31.1189297885714,7.53574893885714,0,1.49446544257143,1,3,0,881.046201842857
76,0.003313969625,31.077689055,7.699128705625,0,2.511043560875,1,3,0,895.0856310875
77,0.00332507014285714,31.0459430528571,7.85250024971429,0,2.994929348,1,3,0,909.129263671429
78,0.003324657375,31.0305569425,7.768322911875,0,1.7121633985,1,3,0,923.1432734125
79,0.003323146,31.0069813814286,7.693648994,0,1.49855424,1,3,0,937.1696842
80,0.00335634575,30.926099685,7.564288915375,0,1.4990370255,1,3,0,951.1495996125
81,0.00339356471428571,30.8590701314286,7.55365822814286,0,1.49905574157143,1,3,0,965.123220142857
82,0.003398932125,30.77412305625,8.134103479375,0,1.4990370255,1,3,0,979.0344484625
83,0.00338284071428571,30.7157242771429,8.53794716357143,0,1.49905574157143,1,3,0,992.940211685714
84,0.003375821,30.668067725,8.1369461815,0,1.4990370255,1,3,0,1006.79255075
85,0.003400419,30.5986444014286,7.855746565,0,1.49905574157143,1,3,0,1020.64583514286
86,0.003444983625,30.53131144625,7.778482726,0,1.4990370255,1,3,0,1034.441553
87,0.00351100514285714,30.4600561271429,7.68032276357143,0,1.49905574157143,1,3,0,1048.23482214286
88,0.00364079525,30.4184689725,7.671503787,0,1.4990370255,1,3,0,1061.977383
89,0.00384603928571429,30.3470709285714,7.78155643471429,0,1.49905574157143,1,3,0,1075.71634914286
90,0.0040736745,30.2819183075,7.85837502625,0,1.4990370255,1,3,0,1089.40215325
91,0.00423232628571429,30.2088792057143,7.79155139128571,0,1.49905574157143,1,3,0,1103.07965671429
92,0.0042477855,30.15165073125,7.627032663125,0,1.4990370255,1,3,0,1116.705116125
93,0.00414397985714286,30.0826064957143,7.52678382542857,0,1.49905574157143,1,3,0,1130.329199
94,0.004031934875,30.02802329625,7.51629070975,0,1.4990370255,1,3,0,1143.897643375
95,0.00393118528571429,29.9420443814286,7.543571238,0,1.49905574157143,1,3,0,1157.45773114286
96,0.003853399375,29.87314025125,7.473897044125,0,1.4990370255,1,3,0,1170.95852175
97,0.003789978,29.8374497357143,7.53664260642857,0,1.49905574157143,1,3,0,1184.46127085714
98,0.003725390875,29.77893131625,7.8880980065,0,1.4990370255,1,3,0,1197.913907125
99,0.00364291,29.73399541,8.47917368685714,0,1.49905574157143,1,3,0,1211.368599
100,0.00356859975,29.663652905,7.516674324625,0,1.4990370255,1,3,0,1224.77417525
101,0.00355230442857143,29.41167371,3.46230365242857,0,1.49905574157143,0.428571428571429,1.28571428571429,0,1238.14988471429
102,0.003589854625,28.860405355,2.126316943875,0,1.4990370255,0,0,0,1251.293886875
103,0.003658109,28.2923561414286,0.00120766642857143,0,1.49905574157143,0,0,0,1264.22290814286
104,0.00372917425,27.7819772275,0,0.027294339375,1.4990370255,0,0,0,1276.871581125
105,0.00376170514285714,27.31108908,0,10.5353800088571,1.49905574157143,0,0,0,1289.33411971429
106,0.003778146125,26.53421714875,0,26.96039829875,1.50240472225,0,0,0,1301.509102
107,0.00380108671428571,24.8728342785714,0,33.0646878185714,0.200173236142857,0,0,0,1313.18064
108,0.003859910375,22.65172272875,0,34.03156728875,-20.547746641875,0,0,0,1323.89338175
109,0.00399169885714286,20.39448552,0,33.1442042171429,-41.7270469842857,0,0,0,1333.60268985714
110,0.00423297225,18.01129564375,0,36.40387925,-31.06382603325,0,0,0,1342.103399125
111,0.00456861385714286,14.8378467242857,0,38.9738449614286,54.740519134,0,0,0,1349.32641671429
112,0.004804282375,11.77358207375,0,33.281288035,198.4251855,0,0,0,1355.187327875
113,0.00489285914285714,10.103960319,0.00210121971428571,27.6138724157143,372.920747114286,0,0,0,1360.07861385714
114,0.00493367625,9.447185107625,1.846070214,3.754757967625,471.6367105625,0,0,0,1363.3649505
115,0.00490303885714286,9.25217505871429,8.66794898071429,0.412624088285714,503.049351757143,0,0,0,1364.26582385714
116,0.004812475125,9.48156494,15.8267263125,0.238867708125,498.3177239375,0,0,0,1362.325101
117,0.00460302285714286,10.7825073685714,15.5911356285714,0.520222846571429,353.105625057143,0,0,0,1358.28267771429
118,0.004397725625,12.37904468625,15.92174814625,0.201686423625,98.563481965,0,0,0,1353.229488
119,0.00426864642857143,13.6214814485714,16.1279036028571,0.00415837814285714,-15.0532668105714,0,0,0,1347.85688642857
120,0.004177311,14.8858028125,18.52495859875,8.43625e-06,-68.004654685,0,0,0,1341.815272625
121,0.00409976828571429,16.4132186257143,21.0247568442857,0,-66.8603535542857,0,0,0,1334.99230914286
122,0.004023499875,18.31144235875,24.23770209125,0,-18.54250959625,0,0,0,1327.207214875
123,0.00393811071428571,20.5868564571429,23.9656594828571,0,-5.67370797928571,0,0,0,1318.49016414286
124,0.003871243875,22.79795777625,23.6185514125,0,5.9075965115,0,0,0,1308.661782
125,0.003806356,24.81411228,22.3031756685714,0,3.75500944585714,0,0,0,1297.91166871429
126,0.0037290515,26.55266591125,21.201894115,0,3.860627697125,0,0,0,1286.2687775
127,0.00371244257142857,28.03369541,18.1064872214286,0,4.49922105942857,0,0,0,1273.92903871429
128,0.003720028625,28.69859832,18.1942737975,0,4.497111076875,0,0,0,1261.07314175
129,0.00368743557142857,29.4142940914286,17.1735130085714,0,4.497167225,0,0,0,1247.96090828571
130,0.003638930125,30.14200351125,16.7423047275,0,4.497111076875,1.75,2.625,0,1234.4831195
131,0.00360128485714286,30.8770965671429,15.9918613271429,0,4.497167225,2,3,0,1220.71231342857
132,0.003555514125,31.5676103825,15.93480594125,0,4.497111076875,2,3,0,1206.586447375
133,0.003514721,32.1301217071429,9.41740980614286,0,4.497167225,2,3,0,1192.20294642857
134,0.00347579975,32.0288705275,0.048422342625,0,4.497111076875,2,3,0,1177.673586625
135,0.00342140185714286,31.72961363,0,0,4.497167225,2,3,0,1163.28074985714
136,0.003385369375,31.43563941375,0,0,4.497111076875,2,3,0,1148.996285125
137,0.00338070628571429,31.1342480828571,0,0,4.497167225,2,3,0,1134.87710442857
138,0.00337340775,30.83246679625,0,0,4.497111076875,2,3,0,1120.86054275
139,0.00335106457142857,30.5348043871429,0,0,4.497167225,2,3,0,1107.01050071429
140,0.003346955625,30.23716034875,0,0,4.497111076875,2,3,0,1093.2714175
141,0.00337221171428571,29.9443801214286,0,0,4.497167225,2,3,0,1079.69176328571
142,0.00340371525,29.66757667125,0,0,4.497111076875,2,3,0,1066.210813875
143,0.00342739214285714,29.3007586671429,0.00324938814285714,0,4.49750501914286,2,3,0,1052.89840614286
144,0.003461019625,28.8460458525,3.070155177375,0,4.503845744,2,3,0,1039.751837375
145,0.003505526,28.54192508,12.1682626285714,0,1.91927932257143,2,3,0,1026.81462957143
146,0.00354070475,28.62004346625,11.74274974875,0,1.492059827125,2,3,0,1013.89979875
147,0.00355162142857143,28.8324468628571,11.4583550185714,0,4.07660585014286,2,3,0,1000.9409272
148,0.003535618875,29.03367814125,11.03469368875,0,4.503231557875,2,3,0,987.8512617875
149,0.00351755942857143,29.2280737085714,11.5383048128571,0,5.69575563214286,2,3,0,974.702966542857
150,0.00352005575,29.37694181625,10.979105365,0,5.99543551775,2,3,0,961.4457319375
151,0.00354570671428571,29.5092054271429,11.8243611514286,0,5.75328213471429,2,3,0,948.156456428571
152,0.003547654375,29.6068217675,10.86853029375,0,4.49913931975,2,3,0,934.7853616375
153,0.00352004128571429,29.65765823,10.3833885831429,0,2.88990061771429,2,3,0,921.4119338
154,0.0034838095,29.69286379375,10.033555583625,0,1.50001337525,2,3,0,907.99327165
155,0.00344327142857143,29.7357755585714,9.91107822085714,0,1.49905574157143,2,3,0,894.582874785714
156,0.003425278625,29.73097041875,9.619522570125,0,1.497163987125,2,3,0,881.13924095
157,0.00343916828571429,29.7181928557143,9.29536589642857,0,2.05878022,2,3,0,867.725210257143
158,0.0034677965,29.74131416,9.3882378185,0,3.002090562875,2,3,0,854.280742475
159,0.00347183142857143,29.7297811585714,9.51783899485714,0,2.99806213485714,2,3,0,840.857865314286
160,0.00343929975,29.718202545,9.2659623515,0,3.156571195,2,3,0,827.420858275
161,0.00339012528571429,29.7107915771429,9.04814213414286,0,4.50344949042857,2,3,0,814.005842742857
162,0.003346580875,29.70978859125,9.039177765125,0,4.497154256625,2,3,0,800.5643270375
163,0.00331265742857143,29.7229494085714,9.13329572585714,0,4.497167225,2,3,0,787.151863414286
164,0.003294460875,29.73831582,9.2551994305,0,4.496996746,2,3,0,773.7059095125
165,0.00329995314285714,29.7095231542857,9.64734640728571,0,4.09351210728571,2,3,0,760.283813585714
166,0.003339676,29.7095688375,9.43653719225,0,3.00000303025,2,3,0,746.8530884
167,0.00340075457142857,29.70578687,11.0510085375714,0,2.99811148314286,2,3,0,733.4440123
168,0.00345334725,29.74709448875,11.52404493125,0,2.998074051,2,3,0,720.0085739625
169,0.00347437585714286,29.80097377,10.2659880028571,0,2.99811148314286,2,3,0,706.565120614286
170,0.003479515875,29.822622455,10.184742747875,0,2.998074051,2,3,0,693.0911809875
171,0.00348611428571429,29.8503385557143,9.672676202,0,2.99811148314286,2,3,0,679.617542485714
172,0.003487928625,29.86296215125,9.509526035,0,2.998074051,2,3,0,666.11400975
173,0.00349927128571429,29.8986389157143,9.73385434028571,0,2.99811148314286,2,3,0,652.619413685714
174,0.003524027375,29.9197752875,9.68952848,0,2.998074051,2,3,0,639.094468375
175,0.00353975657142857,29.9413487157143,9.67232263571429,0,2.99811148314286,2,3,0,625.576354071429
176,0.003531200625,29.96462959,9.408749289125,0,2.998074051,2,3,0,612.0348521625
177,0.00352252557142857,29.9763379828571,9.47466787985714,0,2.99811148314286,2,3,0,598.499516
178,0.00350005475,29.9760955225,9.243140139875,0,2.998074051,2,3,0,584.9549012625
179,0.00348403057142857,29.98689078,8.94752373542857,0,2.99811148314286,2,3,0,571.417117942857
180,0.003500207625,29.99719958875,9.049437337375,0,2.998074051,2,3,0,557.8575446375
181,0.00349036371428571,29.9866931742857,9.029309043,0,2.99352118442857,2,3,0,544.312195742857
182,0.003455325875,30.00007116625,8.86179206225,0,4.009921697375,2,3,0,530.7573094
183,0.003477187,30.0234517842857,10.3678644281429,0,4.49637122457143,2,3,0,517.2090131
184,0.003568384625,30.0528046225,11.519303525,0,4.497111076875,2,3,0,503.631563
185,0.00365027171428571,30.1464092871429,11.2266331414286,0,4.497167225,2,3,0,490.042547342857
186,0.0037176375,30.30114103625,11.273166365,0,4.497111076875,2,3,0,476.379993725
187,0.00379793942857143,30.4900912485714,10.7889717971429,0,4.497167225,2,3,0,462.6615155
188,0.00381976625,30.71109049,11.63929214875,0,4.497111076875,2,3,0,448.8306277
189,0.00379208657142857,30.9039219857143,11.5637457857143,0,4.497167225,2,3,0,434.918135414286
190,0.00380513025,31.0911413775,11.36838774375,0,4.497111076875,2,3,0,420.905968725
191,0.00382029371428571,31.28257302,11.3303726871429,0,4.497167225,2,3,0,406.823892985714
192,0.003814619875,31.4394061025,11.35290776125,0,4.497111076875,2,3,0,392.6457361375
193,0.00379408642857143,31.5821904028571,11.1045858142857,0,4.497167225,2,3,0,378.420623828571
194,0.003762287625,31.726400495,10.4849078375,0,4.497111076875,2,3,0,364.1142689875
195,0.00374189414285714,31.8807074371429,9.97801076414286,0,4.497167225,2,3,0,349.748731542857
196,0.00377788325,32.0031052,9.80154831125,0,4.497111076875,2,3,0,335.3117665375
197,0.00384671342857143,32.1148228928571,9.70505918871429,0,4.497167225,2,3,0,320.831209014286
198,0.003886865,32.2266704825,9.57920007225,0,4.497111076875,2,3,0,306.2926822875
199,0.00388707685714286,32.3099604028571,9.61322639171429,0,4.497167225,2,3,0,291.713344428571
200,0.0038434915,32.42461646,9.571048780625,0,4.499034495875,2,3,0,277.0807782125
201,0.00376731314285714,32.5239588385714,9.74495256171429,0,3.61275461571429,2,3,0,262.416002728571
202,0.003718143875,32.6061061825,9.785833733,0,2.9971109255,2,3,0,247.6979385125
203,0.00367505057142857,32.6768298028571,9.39414696828571,0,2.99811148314286,2,3,0,232.955143928571
204,0.00361430775,32.75174244875,9.581938094125,0,2.998074051,2,3,0,218.166742325
205,0.003580827,32.7770972914286,4.15546464185714,0,2.99811148314286,2,3,0,203.360539214286
206,0.003585839625,32.45588788875,0.001781226125,0,2.998074051,2,3,0,188.610603775
207,0.00359793771428571,32.0101432914286,0,0,2.99811148314286,2,3,0,174.044606742857
208,0.003618067,31.56357838875,0,0,2.998074051,2,3,0,159.6814457875
209,0.00364986828571429,31.12566356,0,0,2.99811148314286,2,3,0,145.521286857143
210,0.003677159375,30.6857142975,0,0,2.998074051,2,3,0,131.5549578
211,0.00371793585714286,30.26883862,0,0,2.99811148314286,1.14285714285714,1.71428571428571,0,117.787259657143
212,0.003749576875,29.867556685,0,0,2.998074051,0,0,0,104.20124969375
213,0.00377026628571429,29.4787325957143,0,0,2.99811148314286,0,0,0,90.7937674485714
214,0.003842513,28.92607209625,0,0.00244759475,2.998074051,0,0,0,77.59906607125
215,0.00390811357142857,28.41465674,0,3.99413073271429,2.99844927728571,0,0,0,64.6504722271429
216,0.0038960165,27.6123537125,0,28.88017228125,3.01143374275,0,0,0,51.96307125125
217,0.00386972857142857,25.8909418014286,0,34.7535827157143,-6.21885696814286,0,0,0,39.8434503871429
218,0.003882390125,23.83120480125,0,34.88661637625,-22.78342011,0,0,0,28.6403346675
219,0.00392052071428571,21.7560627085714,0,35.6319554457143,-12.5326583785714,0,0,0,18.4207968671429
220,0.004037246875,18.95716529375,0,43.6905183625,40.1472070515,0,0,0,9.29924113775
221,0.004246974,15.0962296614286,0,43.6361254742857,127.84331384,0,0,0,1.60729854428571
222,0.004345905125,12.12998697625,0.00134841775,32.8207982,272.9699384875,0,0,0,-4.39012515875
