"Time","Perspiration","Speed","Acceleration","Braking","Steering","Phase","Activity","Failure","Distance"
0,0.00597071737552031,0,2.151323425,46.4361092114286,-10.3466751737143,0,0,0,-14.84616266
1,0.0060447663455783,3.5e-06,2.19864405414286,46.63896811,-10.4950279457143,0,0,0,-14.8458661
2,0.00612063788707619,0.000459004875,2.212974830875,46.5930493575,-17.2081271175,0,0,0,-14.84538419
3,0.00618031032200529,0.00348872228571429,2.18929276385714,45.52990727,-26.32925193,0,0,0,-14.84556954
4,0.00615753185645621,0.00549047475,2.2007788395,45.46739337875,-22.06401178,0,0,0,-14.84538419
5,0.00608752563675823,0.00992761071428571,2.21012902414286,45.3884552757143,-16.4641362371429,0,0,0,-14.8455796085714
6,0.00601056331895373,0.027663354375,2.211612109,32.59317158375,-43.57284407625,0,0,0,-14.843077455
7,0.00593177728516424,0.548554404285714,2.62335871785714,0.0125812824285714,-172.330497314286,0,0,0,-14.73884567
8,0.00585257953344474,1.243656864125,6.9220519985,0,-285.8471423875,0,0,0,-14.3387207425
9,0.00577412396635178,1.89683993257143,10.5087752617143,0,-282.914614957143,0,0,0,-13.63927673
10,0.00569889535838113,2.763211423625,11.49983031375,0,-207.8607180125,0,0,0,-12.61547395875
11,0.00564169884589034,3.67003827657143,10.7374099914286,0,-66.4725721314286,0,0,0,-11.2091425728571
12,0.00566847779697808,4.381816889875,10.15671566175,0,5.928596756375,0,0,0,-9.450070418625
13,0.0057375865660212,4.84894678142857,11.008902174,0,78.52267217,0,0,0,-7.43035087571429
14,0.00581164072439909,5.368096880875,14.405765815,0,135.35974535,0,0,0,-5.183758950625
15,0.00588399191954799,6.153551623,15.59693866,0,146.366206528571,0,0,0,-2.593528294
16,0.00593598534827693,7.113649783125,16.2191315775,0,62.7388870775,0,0,0,0.391479751625
17,0.00591100350913637,8.09818972514286,19.4786409228571,0,17.4080970628571,0,0,0,3.81223677542857
18,0.00583921568927956,9.466189883875,22.42003112375,0,8.885036596375,0,0,0,7.735330483625
19,0.00576082657452324,11.2719704142857,23.17170079,0,-6.86280266685714,0,0,0,12.3750271942857
20,0.00568040096561301,13.25511790125,25.71580875125,0,-14.18687476875,0,0,0,17.89539974125
21,0.00559918063038094,15.6518259814286,26.9204862957143,0,-13.6107940115714,0,0,0,24.3817828571429
22,0.00551766406351564,18.11094413375,27.3873011775,0,-7.156904803875,0,0,0,32.01974797125
23,0.00543621701699747,20.3437625971429,27.5594245614286,0,-2.65388398014286,0,0,0,40.7035789385714
24,0.00535523622556977,22.60153307375,28.6171212125,0,1.015237053375,0,0,0,50.4004698475
25,0.00527531004233719,24.9103540942857,28.1453975785714,0,1.500476284,0,0,0,61.1224515214286
26,0.00519807636669842,26.65065937875,25.67691073375,0,2.361955543125,0,0,0,72.8154105225
27,0.00513079679256608,27.8129997457143,26.7887064457143,0,3.00016531757143,0,0,0,85.1071301485714
28,0.00513078740602009,29.032180785,24.682268895,0,2.998074051,0,0,0,97.9499342175
29,0.00519547909964714,29.6966229142857,8.50416170928571,0,2.99811148314286,0.285714285714286,0.857142857142857,0,111.260977057143
30,0.00527037761544182,29.22390451375,6.910936151125,0,2.998074051,1,3,0,124.589063875
31,0.00534659736519414,28.3703540871429,6.75031379228571,0,3.00031291314286,1,3,0,137.616291071429
32,0.00541973440166723,27.38323646375,7.026585028625,0,1.54275961325,1,3,0,150.2093671875
33,0.0054633490593452,26.4232709828571,16.0265312015714,0,-0.00441602828571429,1,3,0,162.363422057143
34,0.00543799882210623,26.67661963375,23.7645569475,0,1.73966375425,1,3,0,174.295804375
35,0.00541561637669462,27.7274319385714,23.2223937057143,0,2.99429185342857,1,3,0,186.581710614286
36,0.00541177559323074,28.528789265,19.960963015,0,1.851029691,1,3,0,199.312878475
37,0.00543174831383155,28.89679041,18.6670545785714,0,2.46193383614286,1,3,0,212.291967142857
38,0.00547313250324485,29.20717120125,17.38398916625,0,4.501280917375,1,3,0,225.4155355625
39,0.0055098599096198,29.4868519942857,18.2335372314286,0,3.61036848028571,1,3,0,238.6714821
40,0.00549549364799766,29.7710768,18.1329036675,0,1.849901854125,1,3,0,252.055410375
41,0.00543233276589421,30.0456947942857,19.5554205814286,0,2.38296685,1,3,0,265.561479628571
42,0.00535562148983193,30.41979997875,19.09071323875,0,2.99903717675,1,3,0,279.2140260875
43,0.00527709940831423,30.8376892342857,18.7219070014286,0,2.99811148314286,1,3,0,293.051097771429
44,0.0051989443434143,31.12031265625,18.13300192875,0,2.998074051,1,3,0,307.04515025
45,0.00512370265837255,31.3108049314286,17.1883199614286,0,2.99811148314286,1,3,0,321.151835242857
46,0.00506868665608256,31.46429106,19.63321254,0,2.998074051,1,3,0,335.326742775
47,0.00509511255539805,31.7015261814286,18.8566263771429,0,2.99742776442857,1,3,0,349.5961069
48,0.00516107640201789,31.96320665375,18.1869745825,0,2.557868138875,1,3,0,363.973893
49,0.00520549183567837,32.0572919814286,17.0628399442857,0,1.49426910442857,1,3,0,378.4434893
50,0.00519631712237253,32.07005330375,14.244890505,0,1.498242238375,1,3,0,392.9301660625
51,0.00522251137176801,31.9785143957143,13.9183382271429,0,1.56375336071429,1,3,0,407.398799628571
52,0.00525637856870777,31.91798275375,13.3753694575,0,3.023215705625,1,3,0,421.8256536625
53,0.00525385178427932,31.8882609814286,12.65497384,0,2.664582108,1,3,0,436.246743642857
54,0.00526005305876394,31.79280333375,12.30294180625,0,2.998196391125,1,3,0,450.6286483375
55,0.00527461535295535,31.6795610057143,16.02035952,0,2.99811148314286,1,3,0,464.966724657143
56,0.00529505374376609,31.7081286925,19.02867088375,0,2.998074051,1,3,0,479.272719175
57,0.00535414558140795,31.96686295,12.9887270721429,0,2.99811148314286,1,3,0,493.6549593
58,0.00542757959272021,31.81390995625,3.824367237875,0,2.998074051,1,3,0,508.0793378375
59,0.0054948626783249,31.30888826,3.25035155271429,0,2.99879520214286,1,3,0,522.352935057143
60,0.00550101174957859,30.66274141375,3.181545224125,0,3.438438853,1,3,0,536.3396684
61,0.00544774862083337,30.2527064214286,3.25306189657143,0,4.49956772742857,1,3,0,550.098649242857
62,0.00539932347565566,29.911511335,3.208027505,0,3.20532247475,1,3,0,563.683959425
63,0.0053765690784062,29.5989677228571,3.12603886,0,1.79868378085714,1,3,0,577.1327501
64,0.00538480326165492,29.126452565,3.122070351625,0,1.485308514,1,3,0,590.3923223125
65,0.00538801329247783,28.63282896,4.51687483028571,0,3.43535578628571,1,3,0,603.446874685714
66,0.00538482680707233,28.15056602625,5.546898157375,0,3.356682721375,1,3,0,616.2615433
67,0.0053770404128282,27.6792347614286,6.11559985157143,0,2.99871069657143,1,3,0,628.879513657143
68,0.00533267659072013,27.22495407,8.01038164,0,2.268543793875,1,3,0,641.272921175
69,0.00527799870428042,26.8486182071429,16.5043991728571,0,2.05941771442857,1,3,0,653.485399242857
70,0.00526522734742118,27.04470359875,23.082244165,0,3.002090562875,1,3,0,665.610931225
71,0.00528591368352699,27.93502003,22.8996689342857,0,2.99811148314286,1,3,0,678.0218912
72,0.00531840656753277,28.83525535125,22.82601956375,0,2.998074051,1,3,0,690.836788675
73,0.00532739371300724,29.6546554042857,20.0406647157143,0,2.99811148314286,1,3,0,704.059813657143
74,0.00532593815245284,30.01012866,20.5293866475,0,2.998074051,1,3,0,717.537798225
75,0.00537449857242875,30.35889362,13.0425967085714,0,2.99811148314286,1,3,0,731.186813528571
76,0.00543174429084387,30.15411396875,3.966252358125,0,2.998074051,1,3,0,744.8598526375
77,0.00543472837539598,29.8085717542857,3.770323597,0,2.99811148314286,1,3,0,758.412166728571
78,0.00540201561451025,29.45247583625,3.899613761,0,2.998074051,1,3,0,771.798109275
79,0.00538436949857332,28.9359171257143,8.62768520228571,0,2.99811148314286,1,3,0,784.993615957143
80,0.00537479760924672,28.51216365,13.03836342625,0,2.998074051,1,3,0,797.9552399125
81,0.00534341293064879,28.2314152642857,14.2350323114286,0,2.99811148314286,1,3,0,810.777734457143
82,0.00527464414663248,28.0513874725,18.14570373375,0,2.998074051,1,3,0,823.474926375
83,0.00520027038818512,28.2898209985714,22.5080987857143,0,2.99811148314286,1,3,0,836.176354
84,0.00514068314291819,28.9752410025,19.84812685125,0,2.998074051,1,3,0,849.1110350125
85,0.0051241791549172,29.2848027485714,19.7896746914286,0,2.99811148314286,1,3,0,862.289741885714
86,0.00513431611504911,29.6282833025,19.47924311375,0,2.998074051,1,3,0,875.5792229
87,0.00516288550536023,29.9594507857143,16.0234941842857,0,2.99811148314286,1,3,0,889.058671114286
88,0.0051868417338353,29.96323891,16.75940350875,0,2.998074051,1,3,0,902.58723795
89,0.00519685897133768,29.9058734471429,13.0213526685714,0,2.99811148314286,1,3,0,916.122950657143
90,0.00522422147996581,29.75103208625,12.71029913375,0,2.998074051,1,3,0,929.5922981
91,0.005274671362146,29.4893977485714,10.5961878017143,0,2.99811148314286,1,3,0,942.987651657143
92,0.00533848740750056,28.90719528875,9.7724812815,0,2.998074051,1,3,0,956.1886733375
93,0.0053566504404296,28.3445867014286,17.4543202742857,0,2.99811148314286,1,3,0,969.106645685714
94,0.0053080219699588,28.39342183875,17.78081316625,0,2.998074051,1,3,0,981.9034191375
95,0.00526840220405039,28.5336944442857,17.7381092771429,0,2.99811148314286,1,3,0,994.774706171429
96,0.0052576788187858,28.52366895625,15.72082336375,0,2.99823294025,1,3,0,1007.651730375
97,0.00525572889870535,28.4128577257143,15.4066592542857,0,2.99572534842857,1,3,0,1020.52704
98,0.0052223487011901,28.29550980375,16.82791851125,0,1.85461255375,1,3,0,1033.32088625
99,0.00517734972632472,28.1954240514286,16.1275573628571,0,2.22140823785714,1,3,0,1046.09505671429
100,0.00519528671186349,28.176929135,18.63056547625,0,2.996134576125,1,3,0,1058.811999125
101,0.00525571931411946,28.39852841,18.9731310242857,0,2.99811148314286,1,3,0,1071.58975671429
102,0.00530653796964881,28.73383137375,19.72401617625,0,2.998074051,1,3,0,1084.487757625
103,0.00530959523002107,29.0410066285714,17.7976872414286,0,2.99811148314286,1,3,0,1097.54805257143
104,0.00526229509585056,29.18382356,16.28764672375,0,2.998074051,1,3,0,1110.69472225
105,0.00519930816326163,29.0411175,10.4234621888571,0,2.99806213485714,1,3,0,1123.87569814286
106,0.00513408500023546,28.402906615,4.3898026985,0,3.156571195,1,3,0,1136.855079625
107,0.00510330500903087,27.4848557528571,14.3440934037143,0,4.50378728457143,1,3,0,1149.48867757143
108,0.00514083449703464,27.28907176,16.4550279525,0,4.509766873125,1,3,0,1161.814859375
109,0.0051829782805139,27.5169041428571,16.6394524014286,0,3.11820552342857,1,3,0,1174.205655
110,0.00516825654272064,27.6718396825,8.72587231625,0,2.999106304125,1,3,0,1186.674799375
111,0.00511484406125453,27.1207653171429,5.90661151285714,0,2.43838700514286,1,3,0,1199.09035242857
112,0.00504630198913987,26.227803595,10.340481425375,0,1.495020513875,1,3,0,1211.116469
113,0.00498780479125016,25.7687300514286,13.1147110928571,0,1.49905574157143,1,3,0,1222.85734528571
114,0.00498889472622213,25.6988777875,20.7919353275,0,1.504234518875,0.75,2.25,0,1234.439764125
115,0.00500512181099728,26.2632335571429,22.95724978,0,3.00382897785714,0,0,0,1246.175662
116,0.00500572661300907,27.1145425675,20.756418174375,0,4.41749759,0,0,0,1258.21586025
117,0.00502108760307258,27.4564278257143,3.65318474442857,0.000888110571428571,2.99700057442857,0,0,0,1270.60577228571
118,0.00505192677128695,26.7431561175,2.95819438,10.758883309375,2.998074051,0,0,0,1282.858786625
119,0.00504120885510584,24.5759769171429,3.00913152614286,23.4882070742857,2.99742776442857,0,0,0,1294.53629342857
120,0.00499338486339675,21.8778210125,2.961082794125,23.95578725,2.56115383225,0,0,0,1304.996673125
121,0.00494610375134354,20.0372752742857,2.854092074,17.5203903614286,-0.337610004857143,0,0,0,1314.42362114286
122,0.00493119063778071,18.78678264625,2.832248666,20.22331170625,-16.56332267,0,0,0,1323.192682625
123,0.00496298337820679,17.5607943728571,2.82514773142857,14.5391533071429,-34.8773181457143,0,0,0,1331.37257885714
124,0.0050271346801236,16.89327143625,2.7734714605,13.93218787625,-51.8617243625,0,0,0,1339.040475875
125,0.00510468210130578,16.00514511,2.78719603042857,17.6304258028571,-48.1289451957143,0,0,0,1346.23633828571
126,0.00518553548395154,14.6657343275,2.70923596825,20.98215754,-33.83269732,0,0,0,1352.6769775
127,0.00526735926159805,12.9958940185714,2.62391491928571,21.7034102671429,4.03522324242857,0,0,0,1358.35635528571
128,0.00534966076253794,11.36115276125,2.55254564925,21.10875224,78.6177861125,0,0,0,1363.31133425
129,0.00543217448897205,10.1830822951429,2.73655428614286,16.5569474057143,152.239000257143,0,0,0,1367.93016428571
130,0.00551474725565798,9.589981448875,2.77084950025,12.49369065625,281.283835875,0,0,0,1372.3455515
131,0.00559724712203828,9.06027415871429,2.60212407814286,10.2759884701429,390.6844873,0,0,0,1376.370111
132,0.00567952765569967,8.635659528,2.356600673875,5.500400261625,450.9970810375,0,0,0,1379.029868875
133,0.00576141890781552,8.63044306142857,4.40251820814286,0.0152272125714286,405.027062942857,0,0,0,1379.73234614286
134,0.0058426016749141,8.75365661625,8.500094593625,0,333.8047006375,0,0,0,1378.39192775
135,0.0059225514155499,8.95977233314286,11.7896731942857,0,300.698118257143,0,0,0,1375.70128471429
136,0.00599969790900691,9.62970184575,18.4924721025,0,211.051184825,0,0,0,1371.886613375
137,0.00606741988736312,10.82904016,21.6900634728571,0,103.906791577143,0,0,0,1367.38880842857
138,0.0060701859716681,12.6183706975,26.54921552125,0,42.46832634875,0,0,0,1362.113532875
139,0.00600515678717995,15.2499533971429,29.0949342271429,0,5.86904131042857,0,0,0,1355.91073414286
140,0.00592851594529042,18.24727879,29.55332837625,0,-10.595818002375,0,0,0,1348.358343875
141,0.00584911240178411,21.1021324842857,29.7077519414286,0,-13.48300794,0,0,0,1339.51374442857
142,0.00576849183406314,23.65380158625,29.4553652075,0,-8.128059650625,0,0,0,1329.381632125
143,0.00568745047969131,26.0247413028571,29.67435327,0,-1.56979971114286,0,0,0,1318.19108085714
144,0.00560682945358685,28.19206102875,25.76557173,0,5.167131948375,0,0,0,1305.892046
145,0.00553082833509899,29.5297739914286,24.91941284,0,5.933204835,0,0,0,1292.85255971429
146,0.00548217411447095,30.86316095375,24.48648694,0,4.482658620125,0,0,0,1279.19102425
147,0.00542077497216086,31.9579033242857,22.82620496,0,4.49686179428571,0,0,0,1265.00639314286
148,0.00534184992978653,32.86591682625,25.035924245,0,4.497111076875,0,0,0,1250.345561
149,0.00526157679913268,33.9264249414286,24.3917436742857,0,4.497167225,1.71428571428571,2.57142857142857,0,1235.28664157143
150,0.00518229051403781,34.92693685125,23.41696065625,0,4.49773440325,2,3,0,1219.70139
151,0.00510750750651138,35.7498541228571,21.5336841185714,0,4.44872516485714,2,3,0,1203.74717871429
152,0.00506608962422244,36.31208028,19.8246481925,0,2.12507246575,2,3,0,1187.437112375
153,0.00506303933820828,36.6196467257143,19.5348044471429,0,4.84073503885714,2,3,0,1170.98417328571
154,0.0050907005626232,36.96820704625,20.91053825,0,6.775430545375,2,3,0,1154.3505075
155,0.0051456134034284,37.2787469842857,18.3710500042857,0,4.708792734,2,3,0,1137.58738971429
156,0.0051660330368226,37.5499383425,18.6958414975,0,2.999039904625,2,3,0,1120.669966625
157,0.0051395137500433,37.8339937171429,17.7684294942857,0,2.99777368914286,2,3,0,1103.65594457143
158,0.00509484372574018,38.06793856,16.17977903625,0,2.985461434875,2,3,0,1086.494099875
159,0.00508601078494206,38.0700261585714,5.956166013,0,4.37485664214286,2,3,0,1069.29420357143
160,0.00514071966864804,37.50879720875,4.191572464,0,3.635033345375,2,3,0,1052.19291425
161,0.00521551742380394,36.7457851728571,3.84763721871429,0,2.996057649,2,3,0,1035.42840128571
162,0.00529302135556157,35.99617965875,3.16096837375,0,2.998188381875,2,3,0,1018.98218425
163,0.00536962753692043,35.2473552914286,2.87386857857143,0,3.24105231571429,2,3,0,1002.89986645714
164,0.00543772346452576,34.4890561825,2.841578842875,0,4.495182097875,2,3,0,987.138275475
165,0.00545523268919068,33.7459117071429,2.84721213457143,0,4.497167225,2,3,0,971.734979242857
166,0.00540673262660626,33.00066670625,2.803780781625,0,4.497111076875,2,3,0,956.6505408625
167,0.00535361324158369,32.2642037242857,2.78280374742857,0,4.497167225,2,3,0,941.9200065
168,0.00533918939090036,31.77231537,2.753683591625,0,4.497111076875,2,3,0,927.4587386125
169,0.00533368398040646,31.4373617142857,2.73294240942857,0,4.497167225,2,3,0,913.190703657143
170,0.00534704531892688,31.11360565375,2.974591861625,0,4.497905864,2,3,0,899.0530266375
171,0.00536448300387839,30.7726353728571,7.23129433728571,0,4.43170668542857,2,3,0,885.0832807
172,0.00538410694519845,30.6522431275,21.0987309475,0,3.5706538135,2,3,0,871.2226477375
173,0.00541051319542443,31.2454209014286,16.8065741657143,0,4.496273648,2,3,0,857.2727167
174,0.00538952012947727,31.39139622875,3.76900291725,0,4.33861393325,2,3,0,843.0790473625
175,0.00532320877659443,31.0809798742857,3.05559184442857,0,2.99182921814286,2,3,0,828.979349971429
176,0.00524863706670964,30.76339024125,3.111304965875,0,2.998316663125,2,3,0,815.0014901375
177,0.00517743746968705,30.44650647,3.06391991414286,0,3.224033836,2,3,0,801.183319142857
178,0.00514686743790663,30.12062543125,3.44415608375,0,5.93915930225,2,3,0,787.4946349875
179,0.00519730951371677,29.8454781171429,15.7491456785714,0,5.99128788514286,2,3,0,773.963317157143
180,0.00526406766320475,29.94335404,16.4481441425,0,3.564792907875,2,3,0,760.4636367
181,0.00529975501351501,30.1818447328571,16.7689285357143,0,2.99949461557143,2,3,0,746.891369785714
182,0.00526170645663817,30.3546426775,14.70328512125,0,4.14318824325,2,3,0,733.204577175
183,0.00520316514476198,30.3860410271429,12.0147301628571,0,4.514687206,2,3,0,719.492589528571
184,0.00513675613866592,30.313377425,9.26357166925,0,3.0534642225,2,3,0,705.7669094125
185,0.0051087606901617,30.0792671571429,7.74587944557143,0,2.98364195057143,2,3,0,692.128450657143
186,0.00516060716110846,29.7769230375,9.809508097625,0,5.727644130375,2,3,0,678.5988588625
187,0.00523308832773505,29.4812531157143,7.32972073871429,0,5.99434511385714,2,3,0,665.215612242857
188,0.00529725100397368,29.01407219625,7.245730572125,0,5.13322958525,2,3,0,651.9940970375
189,0.00534708251964358,28.54702305,4.323624343,0,4.49511339085714,2,3,0,638.996776314286
190,0.00539612271480604,28.10689106375,3.343127478375,0,4.49528692175,2,3,0,626.1925747375
191,0.00542396252260986,27.6803629628571,7.14677892042857,0,3.77431322728571,2,3,0,613.597629714286
192,0.00546600000736821,27.4000703125,19.73046174625,0,3.000013526125,2,3,0,601.163982825
193,0.00551031887889053,27.8117917742857,21.0634348285714,0,2.99811148314286,2,3,0,588.725591128571
194,0.0054851347408978,28.49741669375,20.3038798475,0,2.998025167875,2,3,0,575.9952502875
195,0.00541809913067771,29.1742591528571,20.5152005357143,0,4.28068995957143,2,3,0,562.9811933
196,0.00535769307268347,29.777473925,19.14819968875,0,6.0001974415,2,3,0,549.6506011375
197,0.00532165740760674,30.2287013342857,17.31603768,0,3.82923188114286,2,3,0,536.099508871429
198,0.00528301614739786,30.332811925,12.309423409,0,1.49407344475,2,3,0,522.396025525
199,0.00524904772977086,30.2142127042857,13.2638834842857,0,2.38415207014286,2,3,0,508.730139528571
200,0.0052170560141724,30.16669504375,12.50551226625,0,3.439243089375,2,3,0,495.087318775
201,0.00519895632108775,30.1546302028571,12.4819640357143,0,4.50195386228571,2,3,0,481.469201285714
202,0.00520678796126406,30.145563495,13.58221404,0,4.497111076875,2,3,0,467.842655575
203,0.00522241950797257,30.1625603342857,13.5969902571429,0,4.497167225,2,3,0,454.225852742857
204,0.00522307014822994,30.16567375875,13.13630198375,0,4.497111076875,2,3,0,440.59355215
205,0.00524154961002738,30.1362019285714,9.93930444757143,0,4.497167225,2,3,0,426.979517271429
206,0.00529666554179408,29.9235299375,4.32619492675,0,4.497111076875,2,3,0,413.401530675
207,0.00536894588367442,29.5805308385714,3.53612307014286,0,4.49495068214286,2,3,0,399.962995242857
208,0.00544055272259243,29.0681396075,3.356195951375,0,3.634192559625,2,3,0,386.7079682625
209,0.00547942738870066,28.5810322371429,3.697396684,0,2.997173477,2,3,0,373.691478385714
210,0.00547876301529923,28.11172924875,5.31607947775,0,4.590458875625,2,3,0,360.8853806125
