"Time","Perspiration","Speed","Acceleration","Braking","Steering","Phase","Activity","Failure","Distance"
0,0.00560461778504191,0,2.19235876185714,0,2.95629667114286,0,0,0,-17.2421497
1,0.00554960242035041,0,2.21955869414286,0.00257698485714286,2.99911448642857,0,0,0,-17.2418052771429
2,0.00547550537684904,0,2.220705199625,6.172785245875,3.001756177875,0,0,0,-17.24124559
3,0.00542273868182995,0,2.135858655,59.0158581242857,1.15031927757143,0,0,0,-17.2414608542857
4,0.00537273750611691,0,2.05650124025,61.92552603125,-1.501407569,0,0,0,-17.24124559
5,0.0052952110570524,0,2.04978143257143,63.3725352971429,-1.88984296071429,0,0,0,-17.2414641142857
6,0.00520675864348918,0.031774852,2.038174678,30.03959238275,-28.496042645,0,0,0,-17.24001664625
7,0.00512663662593607,0.632617285714286,5.24446179271429,0,-124.573486598571,0,0,0,-17.1156021714286
8,0.00509547713689929,1.416077836,10.11222644175,0,-188.2368356875,0,0,0,-16.64443200875
9,0.00514332667909127,2.48215027928571,18.54226556,0,-166.1346586,0,0,0,-15.8118562057143
10,0.00521189807781647,4.309805022875,17.49497785625,0,-97.2345967025,0,0,0,-14.27521652125
11,0.00524798007433585,5.80081965057143,17.2045427385714,0,-21.6761021088571,0,0,0,-12.0185643128571
12,0.00528013930123999,6.953365691125,18.18135891625,0,42.073802505,0,0,0,-9.164823960875
13,0.00535370629391033,7.93107878857143,17.3482116514286,0,68.6732323842857,0,0,0,-5.83176725671429
14,0.00544430628656181,8.933731338875,18.34539809375,0,83.73011215,0,0,0,-2.026258315375
15,0.005534923001389,10.1628412564286,18.5788171614286,0,56.6888307171429,0,0,0,2.26641561057143
16,0.00561423944251063,11.53537235625,25.15906276625,0,4.529200556,0,0,0,7.1384752575
17,0.00564631063956552,13.7162302242857,26.2639778871429,0,-13.4045104271429,0,0,0,12.7482003142857
18,0.00559198349763286,16.18801067,26.33253122125,0,-12.672958890375,0,0,0,19.51066966
19,0.00550429864517255,18.4081701971429,26.78654086,0,-6.494629935,0,0,0,27.3156851171429
20,0.00540731937328195,20.4909838225,28.98553239,0,-3.930775581625,0,0,0,36.11324684
21,0.005307148173318,22.7810201942857,30.1552191885714,0,0.0115080065714286,0,0,0,45.8612461357143
22,0.00520603472173553,25.215273055,28.5498279175,0,0.72694879125,0,0,0,56.74693282375
23,0.00510581770571045,26.8326845914286,23.6250549385714,0,1.562778072,0,0,0,68.5242883442857
24,0.00500974766574948,27.67204197,22.00789258,0,3.012526507875,0,0,0,80.8611253225
25,0.00492887159611693,28.1128451771429,15.3394384114286,0,2.99951762914286,0,0,0,93.48050245
26,0.00489980464301736,28.0336115675,15.37903248,0,2.4111561635,0,0,0,106.163264875
27,0.00489788652175565,27.9568132028571,18.6986693728571,0,1.74263406842857,0.857142857142857,0.857142857142857,0,118.807675771429
28,0.00488367636687388,28.14780421125,21.96407684375,0,2.996145072375,1,1,0,131.4623376125
29,0.00487369546992756,28.6251930357143,18.3647522771429,0,2.99811148314286,1,1,0,144.279538171429
30,0.00491392878512791,28.6860375,17.49770663,0,2.998074051,1,1,0,157.2417494875
31,0.00499074660424776,28.64482755,17.9294233457143,0,2.99811148314286,1,1,0,170.189336328571
32,0.0050691799633524,28.701185955,18.175729245,0,2.998074051,1,1,0,183.137730975
33,0.00511216278689139,28.9005191942857,19.8934179585714,0,2.99811148314286,1,1,0,196.142749528571
34,0.00507145813338914,29.31338236625,22.36276996,0,2.998074051,1,1,0,209.281684225
35,0.00499640292014687,29.8393532885714,17.3861462112857,0,2.99811148314286,1,1,0,222.643187871429
36,0.00492596624597026,29.6834192975,7.797885123,0,2.998074051,1,1,0,236.1193965625
37,0.00490716406989939,28.8122672585714,11.2536962641429,0,2.99816083157143,1,1,0,249.352961442857
38,0.00496911672550808,28.27484707875,14.621107675,0,2.98020190775,1,1,0,262.2117342375
39,0.00505680446862318,28.1051074985714,15.1529901057143,0,1.49277347628571,1,1,0,274.948347185714
40,0.00514939093242267,27.99353376375,15.73860725625,0,1.499108176625,1,1,0,287.612126875
41,0.00523740058059665,27.9612840814286,15.7908509085714,0,1.74199657385714,1,1,0,300.2597822
42,0.00529350080249187,27.95339906125,17.80839059,0,2.9960307415,1,1,0,312.882973325
43,0.00528339360197138,28.0366157185714,18.82983836,0,2.59445636571429,1,1,0,325.526838557143
44,0.00529263934055708,28.23990123,17.89543994875,0,1.5009660045,1,1,0,338.2374880125
45,0.00535035260583524,28.4573116857143,17.7917370885714,0,1.49871794742857,1,1,0,351.045556828571
46,0.005381746868439,28.65646125125,17.2643682475,0,1.48642440925,1,1,0,363.94189645
47,0.00533488509536198,28.8040512071429,17.0032964757143,0,2.878017443,1,1,0,376.926443785714
48,0.00525437213256973,28.8957375775,16.33351345625,0,2.998743376,1,1,0,389.961322875
49,0.0051734446203112,28.8114361671429,14.6381465242857,0,3.01508061457143,1,1,0,403.005484871429
50,0.00512343434703062,28.6780555175,13.81137030875,0,1.572286768875,1,1,0,415.9905042625
51,0.0051533265939837,28.5392931,13.8842552014286,0,3.00455656042857,1,1,0,428.9201735
52,0.00522882104798962,28.33096683625,11.30307430625,0,2.998117230875,1,1,0,441.769044025
53,0.00530681699217368,28.0503736657143,17.2268877357143,0,2.99811148314286,1,1,0,454.5053206
54,0.00535071001499261,27.96949517875,16.88600755375,0,2.998074051,1,1,0,467.142232075
55,0.00531456949303629,27.9972558428571,18.0643637142857,0,2.99811148314286,1,1,0,479.789583628571
56,0.00524119612291996,28.09208090375,17.5898521975,0,2.998074051,1,1,0,492.4522148625
57,0.00518398754609306,28.2098863771429,18.5603832271429,0,2.99811148314286,1,1,0,505.1731758
58,0.00519150765963144,28.29928368875,17.22183030375,0,2.998074051,1,1,0,517.930658225
59,0.00519317752136062,28.3949084828571,16.5034077357143,0,2.99921219828571,1,1,0,530.739785128571
60,0.0051438076460276,28.44811314875,16.47836126125,0,2.4110418325,1,1,0,543.5748777
61,0.00510690317071269,28.3838888728571,14.8801414757143,0,1.499693236,1,1,0,556.423005428571
62,0.00514117437949409,28.25757168375,14.60071835,0,1.499322817375,1,1,0,569.208179025
63,0.00521656365268745,28.1148134,14.5359331714286,0,1.72497809442857,1,1,0,581.9494854
64,0.00529613681790544,27.94667549875,13.9727069375,0,4.4396901675,1,1,0,594.6016004875
65,0.00535162217116232,27.8088215171429,13.2102561285714,0,4.25406358142857,1,1,0,607.2055571
66,0.00532581043769582,27.671728095,14.88284409125,0,3.00000303025,1,1,0,619.7292889
67,0.0052460011542903,27.5733003757143,18.2825739528571,0,2.99816083157143,1,1,0,632.2094316
68,0.00515251320142716,27.68685919375,16.9425608875,0,2.98020190775,1,1,0,644.6832420875
69,0.00505631836870899,27.8626914328571,17.8365063485714,0,1.49277347628571,1,1,0,657.240396957143
70,0.00496311554845264,28.08118413125,18.1978690075,0,1.49899384575,1,1,0,669.8687963625
71,0.00488604036484955,28.3118348114286,16.2540283385714,0,1.49905574157143,1,1,0,682.616498228571
72,0.00487486938427867,28.3697839325,17.88404505125,0,1.499151356375,1,1,0,695.417768025
73,0.004921863309646,28.5063029771429,17.6972715385714,0,1.90271085957143,1,1,0,708.266091142857
74,0.00494047463535436,28.6417401975,18.74268140875,0,2.996145072375,1,1,0,721.167865375
75,0.00488316809629601,28.7694504542857,18.6667505714286,0,2.99811148314286,1,1,0,734.142665071429
76,0.00479539181268721,28.9584381575,17.443033785,0,2.998074051,1,1,0,747.1764373
77,0.00470504298493839,29.1212774114286,16.6163037485714,0,2.99811148314286,1,1,0,760.307510971429
78,0.00463063314867066,29.21550682875,15.364462155,0,2.998074051,1,1,0,773.485675675
79,0.00459180695020459,29.0646868714286,15.0690898742857,0,2.99811148314286,1,1,0,786.662122842857
80,0.00457514237809156,28.921439975,15.65149395125,0,2.998074051,1,1,0,799.7524005
81,0.0045617229307346,28.8268221985714,17.4108815342857,0,2.99811148314286,1,1,0,812.804849685714
82,0.00457031733603564,28.837412645,16.37849972125,0,2.998074051,1,1,0,825.820241725
83,0.00460907569068055,28.8950756585714,15.4482085571429,0,2.99811148314286,1,1,0,838.869693657143
84,0.0046659651174627,28.82694522,12.75989701875,0,2.998074051,1,1,0,851.905061675
85,0.00470993273196645,28.6352347442857,10.4652484485714,0,2.99811148314286,1,1,0,864.900558142857
86,0.00473235052167064,28.37388497125,11.41161258125,0,2.998074051,1,1,0,877.766494975
87,0.00474517964794283,28.1233016928571,11.6374687228571,0,2.99811148314286,1,1,0,890.541373185714
88,0.00476371355540118,27.8885352575,14.979192245,0,2.998074051,1,1,0,903.1791163125
89,0.00477913894564183,27.7514432128571,14.5272532171429,0,2.99811148314286,1,1,0,915.759354885714
90,0.00476882291197559,27.66835244375,14.80054646,0,2.998074051,1,1,0,928.26303615
91,0.00474406401778674,27.55413091,13.7906326271429,0,2.99811148314286,1,1,0,940.7464985
92,0.00471566944076108,27.398886455,16.61738099625,0,2.998074051,1,1,0,953.1440946875
93,0.00467260547341908,27.4251985771429,17.7557021071429,0,2.99811148314286,1,1,0,965.534700457143
94,0.00464935624871123,27.50139879875,16.51981833625,0,2.99886883825,1,1,0,977.9374479625
95,0.00466705943487757,27.47942053,14.8570264485714,0,2.93375165857143,1,1,0,990.368575514286
96,0.00467786306684434,27.37526289875,15.20054535,0,1.484698899875,1,1,0,1002.7461374
97,0.00466732023749625,27.3009118585714,15.0053934457143,0,1.74265204071429,1,1,0,1015.10683028571
98,0.00466934525820778,27.2090524475,15.1693494875,0,2.685393856,1,1,0,1027.399931625
99,0.00471332341637724,27.1661873428571,18.2342320785714,0,1.50446138471429,1,1,0,1039.69015571429
100,0.00479438882722608,27.1747090775,17.393920055,0,2.226398674875,1,1,0,1051.947402
101,0.00488850129888048,27.2366154542857,16.6821097628571,0,2.99781178314286,1,1,0,1064.25269085714
102,0.00498466592900301,27.29004458375,16.0481056,0,3.01068666775,1,1,0,1076.557008125
103,0.00507762572918388,27.3428637071429,15.6451818128571,0,1.61873278571429,1,1,0,1088.90649457143
104,0.00515665439836822,27.4334711075,22.42020552125,0,2.5254343715,1,1,0,1101.252538375
105,0.00518194509299724,27.8691665414286,21.4371949442857,0,4.499099825,1,1,0,1113.74522414286
106,0.00512415632858903,28.39181615,20.79869877,0,3.634192559625,1,1,0,1126.44423
107,0.00503863988976525,28.7778610028571,17.4761027328571,0,2.996057649,1,1,0,1139.382942
108,0.00494689395942941,28.6729331175,9.497169572375,0,2.998074051,1,1,0,1152.3669615
109,0.00485713670622644,28.0482633228571,8.54397315942857,0,2.99811148314286,1,1,0,1165.21747214286
110,0.0047858345432267,27.21892361125,16.175049352625,0,2.998074051,1,1,0,1177.662951125
111,0.00477436287420393,27.1069327128571,20.5427079014286,0,2.99811148314286,1,1,0,1189.93133742857
112,0.00481688784618984,27.51819908375,19.65948105625,0,2.998074051,1,1,0,1202.24274275
113,0.00482895576141934,28.06582465,16.1197556027143,0,2.99811148314286,1,1,0,1214.81296071429
114,0.00477100419259344,27.8975693825,4.431672974125,0,2.998074051,1,1,0,1227.47750125
115,0.00469510500908046,26.9898304185714,3.673503849,0,2.99811148314286,0.285714285714286,0.285714285714286,0,1239.90806271429
116,0.00464146215735141,25.9323538425,3.784895183,0.57698165275,2.998074051,0,0,0,1251.840975875
117,0.00464687417559759,24.7643283028571,3.70325777485714,11.6069640494286,2.99811148314286,0,0,0,1263.32226728571
118,0.00470679212649501,23.79247423,3.573598282625,14.7600737475,2.99823294025,0,0,0,1274.259923625
119,0.0047969545094633,22.6762029371429,3.54521673814286,15.154547875,2.99572534842857,0,0,0,1284.78640528571
120,0.00489738160333024,22.036120735,3.421988863375,6.274771794625,1.85096424325,0,0,0,1294.84580075
121,0.00500141202980517,20.8400616157143,3.38300392228571,17.1731064885714,0.776899653857143,0,0,0,1304.60104642857
122,0.00510734064394811,19.1225073175,2.92281543875,15.9620394475,-0.89452422925,0,0,0,1313.590171375
123,0.00521429550283962,17.7155722942857,2.80209927742857,15.7895438071429,-8.92722055442857,0,0,0,1321.92187757143
124,0.00532187639970776,16.15567336875,2.744258213,17.0512375125,-43.51984845625,0,0,0,1329.5396985
125,0.00542978030905208,14.8435416028571,2.79999872271429,12.7208498657143,-67.0692413314286,0,0,0,1336.45144442857
126,0.00553780946970607,14.0358777275,2.817821903875,9.20439177825,-49.24808634875,0,0,0,1342.665928625
127,0.00564578439915184,13.3245537514286,2.823892086,11.6422755607143,3.85935924471429,0,0,0,1348.42075685714
128,0.00575352268397449,12.19920933625,2.666537520375,14.62990684375,38.5662077925,0,0,0,1353.763394125
129,0.00586083906444134,11.0203092757143,2.73815712614286,14.8588171757143,131.32373687,0,0,0,1358.76287685714
130,0.00596744915812464,9.8262681415,2.74695828125,13.93834120625,256.84314295,0,0,0,1363.40390625
131,0.00607301711999661,8.93775778585714,2.529478033,11.8030366914286,369.860984285714,0,0,0,1367.50338
132,0.00617686498203765,8.091262367875,2.531828845875,8.78140363425,460.6390914875,0,0,0,1370.33520825
133,0.00627794347669825,7.41888708085714,4.77944435528571,0.0129936107142857,518.768573285714,0,0,0,1371.38174014286
134,0.00637337917716752,7.046393904,14.450781927875,0,504.1866438625,0,0,0,1370.414313375
135,0.00645487762301441,7.46488965557143,17.8093396557143,0,415.962462628571,0,0,0,1368.08210142857
136,0.0064814815687758,8.9060581365,21.37580237625,0,212.5972236125,0,0,0,1364.57443675
137,0.0064252950094052,10.8436506268571,25.8819207485714,0,52.9912429914286,0,0,0,1360.26308657143
138,0.00633614083533753,13.60370598,28.52169574625,0,7.4336977805,0,0,0,1354.79451
139,0.00623795634493267,16.59867611,28.19146062,0,-7.96969998385714,0,0,0,1348.03955057143
140,0.00613554661158725,19.4034689825,29.39404268125,0,-8.820459658625,0,0,0,1339.87994525
141,0.00603091567623638,22.0973860542857,29.0890750928571,0,-5.51674420828571,0,0,0,1330.530493
142,0.00592485813633457,24.3956987575,30.08105388,0,-2.4005143035,0,0,0,1319.970351875
143,0.00581792431838932,26.5753006,27.53796446,0,-0.612926854857143,0,0,0,1308.46611314286
144,0.00571040073919921,27.98227025375,20.02537008,0,1.278374581375,0,0,0,1296.071751375
145,0.00560253993417168,28.4295628128571,17.6615518485714,0,5.11951031785714,0,0,0,1283.32860085714
146,0.00549452049954873,28.7590789525,16.97458072625,0,4.698830490375,0,0,0,1270.38286725
147,0.00538652458925909,28.9061024028571,17.1803740742857,0,5.877828855,0,0,0,1257.36967171429
148,0.00527875594729439,29.0592521975,15.4518319675,0,4.68229945025,0.5,0.25,0,1244.257935125
149,0.00517145693363211,29.2277133542857,14.8658580128571,0,2.99938647242857,2,1,0,1231.10446628571
150,0.00506506711219189,29.1836917125,11.1058895875,0,3.004110889625,2,1,0,1217.885827375
151,0.00496037142687976,28.9666265457143,11.5748429314286,0,4.19431375542857,2,1,0,1204.76797114286
152,0.0048598013257969,28.81267647125,13.1629373275,0,3.347539221375,2,1,0,1191.705679875
153,0.00476645209478153,28.7144089271429,12.7442437214286,0,4.92476335171429,2,1,0,1178.731159
154,0.00469636404158823,28.5627244825,10.397752935,0,4.852788700875,2,1,0,1165.77001325
155,0.00466321289205586,28.3568211857143,10.9970742485714,0,4.49666572371429,2,1,0,1152.92841571429
156,0.004663032758441,28.168424855,14.64547304125,0,4.497111076875,2,1,0,1140.14917325
157,0.00469960902162007,28.0870234228571,14.3169781014286,0,4.497167225,2,1,0,1127.45801
158,0.00477013294452195,28.01530846875,14.0122862575,0,4.497111076875,2,1,0,1114.772762375
159,0.004840764262774,27.9824999314286,14.9869849571429,0,4.497167225,2,1,0,1102.13731157143
160,0.00486300972384086,27.9579423125,14.54400046375,0,4.497111076875,2,1,0,1089.486601125
161,0.00484610455137626,27.949418,13.71338537,0,4.497167225,2,1,0,1076.87395414286
162,0.0048691631239482,27.9746547675,17.1244844975,0,4.497111076875,2,1,0,1064.228037875
163,0.00492269820579588,28.0806714485714,16.2809708057143,0,4.497167225,2,1,0,1051.59035928571
164,0.00493063139997283,28.2508731025,16.34687323875,0,4.497225408,2,1,0,1038.85139875
165,0.00487047630048,28.4400336928571,17.4541462971429,0,4.8986058,2,1,0,1026.06758042857
166,0.00478309549971517,28.6231085375,16.17113804625,0,5.13130060625,2,1,0,1013.1614905
167,0.00469198210464563,28.8077943185714,17.24417726,0,4.49511339085714,2,1,0,1000.20478772857
168,0.00461053243989502,28.93843668,15.88034411875,0,4.497111076875,2,1,0,987.145300525
169,0.00456404624251726,28.9668227114286,12.9230853442857,0,4.497167225,2,1,0,974.076610028571
170,0.00454873339196656,28.79495112375,13.3662512475,0,4.497111076875,2,1,0,961.012269975
171,0.00455528888865959,28.65278596,16.65890601,0,4.497167225,2,1,0,948.056314228571
172,0.00460573339250626,28.68603241625,18.529583935,0,4.498984115375,2,1,0,935.0973128
173,0.0046779513611807,28.8836139928571,17.8640566814286,0,3.93744274685714,2,1,0,922.1197892
174,0.00474776651674199,29.066004225,14.39152515375,0,2.993262752625,2,1,0,909.01004885
175,0.00481667599896431,29.0067457314286,15.0792420314286,0,3.06247130842857,2,1,0,895.898926585714
176,0.00485492380242139,28.8859819075,13.69728565,0,4.5115635335,2,1,0,882.81450035
177,0.00486065335766732,28.7098421885714,11.5464502628571,0,4.49747265585714,2,1,0,869.813070957143
178,0.00485532434651648,28.513960185,11.8286922975,0,4.497111076875,2,1,0,856.877078725
179,0.00484936764169852,28.33422316,11.5828536485714,0,4.49826793985714,2,1,0,844.048605085714
180,0.00482111376289144,28.1699592825,13.90928015625,0,3.908155439125,2,1,0,831.2768533625
181,0.0047620066468846,28.0179767142857,14.0793681671429,0,4.04387587328571,2,1,0,818.6018545
182,0.00472190630173263,27.89010123875,14.47018545625,0,4.498074202375,2,1,0,805.9615010875
183,0.00473919987742123,27.7634366714286,14.5136676,0,4.497167225,2,1,0,793.404029328571
184,0.00479324367962837,27.68565726375,16.12242248625,0,4.503147915375,2,1,0,780.8692692625
185,0.00485884672314411,27.6943998642857,15.0286190342857,0,5.69336949728571,2,1,0,768.372443157143
186,0.00491452352869351,27.73165489375,15.82361757375,0,4.850264195875,2,1,0,755.8425827625
187,0.00494343489065997,27.8370374614286,18.6783252314286,0,4.49666572371429,2,1,0,743.305498028571
188,0.00495897925780079,28.07380401875,16.79685055125,0,4.497111076875,2,1,0,730.663813725
189,0.00500646218984695,28.3297900185714,16.6192258471429,0,4.497167225,2,1,0,717.933116514286
190,0.0050887222315099,28.5160696625,17.038625555,0,4.497111076875,2,1,0,705.0805288625
191,0.00518023803390512,28.5298431057143,14.0949661385714,0,4.497167225,2,1,0,692.197266671429
192,0.00526791536899073,28.45540088375,17.3794534925,0,4.497791533125,2,1,0,679.30975975
193,0.00533319399652855,28.4072573471429,16.9397282557143,0,4.18890567042857,2,1,0,666.485182442857
194,0.00532067520054051,28.56706238875,15.7509215925,0,1.797264764,2,1,0,653.6072336
195,0.00524622254028494,28.7408762814286,16.4257924142857,0,2.99129969485714,2,1,0,640.678722057143
196,0.0051547207573434,28.92081714125,17.55359223125,0,2.9966109135,2,1,0,627.646671725
197,0.00505888875744496,29.03424031,15.5873304685714,0,3.96149107928571,2,1,0,614.563972971429
198,0.00496314101613973,28.9993791225,13.86283734375,0,5.992357685875,2,1,0,601.439446325
199,0.00487330783042043,28.8594014114286,12.24178582,0,4.79763455985714,2,1,0,588.371915971429
200,0.00480886386216924,28.62478633625,12.937803685,0,4.497709330875,2,1,0,575.38094265
201,0.00477374764862604,28.4431021171429,14.7291248642857,0,4.497167225,2,1,0,562.498725985714
202,0.00478424570318719,28.30587693625,15.19926836,0,4.497111076875,2,1,0,549.6722551125
203,0.00484918089777307,28.2373742671429,14.6486011014286,0,4.497167225,2,1,0,536.9047807
204,0.0049280387824453,28.169913475,14.22490637125,0,4.497111076875,2,1,0,524.1576338875
205,0.00498258869996163,28.13476082,15.5375324271429,0,4.49620632728571,2,1,0,511.449829957143
206,0.00496338985938139,28.11041826625,18.1048227675,0,4.80774796225,2,1,0,498.7438408625
207,0.00493038299455375,28.1355427514286,16.87109716,0,5.58606149142857,2,1,0,486.057871628571
208,0.0049421107572682,28.20316399,15.8390119625,0,4.499335626,2,1,0,473.332575825
209,0.00499234804760511,28.31314202,16.21793648,0,4.497167225,2,1,0,460.576905971429
210,0.00503045176876927,28.4202125225,16.63933066875,0,4.497111076875,2,1,0,447.759914325
211,0.00504006039859967,28.4859302985714,17.0751822714286,0,4.497167225,2,1,0,434.916252457143
212,0.00506025253650825,28.5873667725,17.91206183375,0,4.497111076875,2,1,0,422.02137635
